'Id: "" Comment: "" Operator: "Lab Manager" Anode: "Cu" Scantype: "Coupled TwoTheta/Theta" TimePerStep: "113.4655" X: "9999" Y: "9999" Z: "-2.700037" 
20.0000 8.610
20.0200 8.689
20.0400 8.707
20.0600 8.266
20.0800 8.733
20.1000 8.243
20.1200 8.257
20.1400 8.454
20.1600 8.536
20.1800 8.253
20.2000 8.333
20.2200 8.083
20.2400 8.581
20.2600 8.536
20.2800 8.232
20.3000 8.906
20.3200 8.965
20.3400 8.780
20.3600 8.796
20.3800 8.744
20.4000 8.109
20.4200 8.510
20.4400 8.652
20.4600 8.691
20.4800 8.362
20.5000 8.666
20.5200 8.617
20.5400 9.086
20.5600 8.835
20.5800 8.553
20.6000 8.411
20.6200 8.561
20.6400 8.484
20.6600 8.570
20.6800 8.573
20.7000 8.769
20.7200 8.891
20.7400 9.168
20.7600 9.010
20.7800 8.704
20.8000 8.806
20.8200 8.160
20.8400 8.828
20.8600 8.957
20.8800 8.829
20.9000 9.342
20.9200 8.874
20.9400 8.855
20.9600 9.129
20.9800 9.222
21.0000 8.562
21.0200 8.760
21.0400 8.642
21.0600 8.818
21.0800 8.987
21.1000 8.622
21.1200 9.179
21.1400 8.825
21.1600 9.088
21.1800 9.167
21.2000 8.875
21.2200 9.369
21.2400 9.367
21.2600 8.843
21.2800 9.113
21.3000 9.289
21.3200 9.528
21.3400 9.177
21.3600 9.126
21.3800 8.756
21.4000 9.091
21.4200 9.044
21.4400 9.500
21.4600 9.124
21.4800 9.111
21.5000 9.099
21.5200 9.266
21.5400 9.392
21.5600 9.785
21.5800 9.245
21.6000 9.243
21.6200 9.568
21.6400 9.000
21.6600 9.319
21.6800 9.291
21.7000 9.288
21.7200 9.309
21.7400 9.251
21.7600 9.037
21.7800 9.342
21.8000 9.352
21.8200 9.691
21.8400 9.298
21.8600 9.204
21.8800 9.075
21.9000 9.378
21.9200 9.855
21.9400 9.736
21.9600 9.590
21.9800 9.151
22.0000 9.519
22.0200 9.660
22.0400 10.009
22.0600 9.946
22.0800 9.765
22.1000 9.656
22.1200 9.565
22.1400 9.846
22.1600 9.627
22.1800 9.598
22.2000 9.621
22.2200 9.775
22.2400 9.546
22.2600 9.802
22.2800 9.186
22.3000 9.771
22.3200 10.075
22.3400 9.648
22.3600 9.364
22.3800 9.969
22.4000 9.603
22.4200 9.598
22.4400 9.965
22.4600 9.996
22.4800 9.775
22.5000 9.739
22.5200 9.729
22.5400 9.949
22.5600 10.003
22.5800 10.280
22.6000 10.262
22.6200 10.326
22.6400 10.191
22.6600 10.066
22.6800 10.723
22.7000 10.170
22.7200 10.021
22.7400 9.999
22.7600 10.104
22.7800 10.158
22.8000 9.874
22.8200 10.244
22.8400 10.070
22.8600 10.133
22.8800 10.285
22.9000 10.524
22.9200 10.617
22.9400 10.158
22.9600 10.052
22.9800 10.269
23.0000 10.027
23.0200 10.096
23.0400 10.411
23.0600 9.883
23.0800 10.285
23.1000 10.352
23.1200 10.215
23.1400 10.535
23.1600 10.436
23.1800 10.077
23.2000 10.339
23.2200 10.114
23.2400 10.399
23.2600 10.735
23.2800 10.138
23.3000 10.407
23.3200 10.503
23.3400 10.588
23.3600 10.669
23.3800 9.833
23.4000 10.824
23.4200 10.420
23.4400 10.363
23.4600 10.731
23.4800 10.757
23.5000 10.550
23.5200 10.251
23.5400 11.076
23.5600 10.449
23.5800 10.727
23.6000 10.871
23.6200 10.840
23.6400 10.598
23.6600 10.417
23.6800 10.395
23.7000 10.548
23.7200 10.999
23.7400 10.975
23.7600 11.134
23.7800 11.393
23.8000 10.845
23.8200 10.913
23.8400 10.899
23.8600 10.537
23.8800 10.839
23.9000 11.064
23.9200 10.475
23.9400 10.576
23.9600 10.580
23.9800 11.064
24.0000 11.033
24.0200 11.135
24.0400 10.726
24.0600 10.623
24.0800 11.262
24.1000 11.160
24.1200 11.241
24.1400 11.856
24.1600 11.065
24.1800 11.157
24.2000 10.970
24.2200 11.193
24.2400 11.100
24.2600 11.279
24.2800 11.026
24.3000 11.934
24.3200 11.619
24.3400 11.648
24.3600 11.363
24.3800 11.466
24.4000 11.084
24.4200 11.242
24.4400 11.371
24.4600 11.397
24.4800 11.446
24.5000 11.540
24.5200 11.514
24.5400 11.807
24.5600 11.537
24.5800 12.013
24.6000 11.699
24.6200 11.769
24.6400 11.279
24.6600 11.416
24.6800 11.686
24.7000 11.435
24.7200 11.227
24.7400 10.926
24.7600 11.838
24.7800 11.636
24.8000 11.662
24.8200 11.545
24.8400 11.531
24.8600 11.424
24.8800 11.763
24.9000 11.914
24.9200 11.495
24.9400 11.753
24.9600 11.571
24.9800 11.796
25.0000 11.869
25.0200 11.471
25.0400 11.828
25.0600 12.259
25.0800 11.646
25.1000 11.436
25.1200 12.438
25.1400 11.744
25.1600 11.921
25.1800 11.805
25.2000 11.717
25.2200 11.901
25.2400 12.115
25.2600 12.363
25.2800 11.870
25.3000 12.284
25.3200 11.631
25.3400 12.125
25.3600 12.353
25.3800 12.260
25.4000 11.707
25.4200 12.183
25.4400 12.365
25.4600 12.378
25.4800 12.231
25.5000 12.015
25.5200 12.715
25.5400 12.612
25.5600 11.866
25.5800 12.819
25.6000 12.151
25.6200 12.326
25.6400 12.427
25.6600 11.602
25.6800 12.655
25.7000 12.183
25.7200 12.355
25.7400 12.352
25.7600 12.468
25.7800 12.797
25.8000 12.050
25.8200 12.446
25.8400 12.818
25.8600 12.482
25.8800 12.590
25.9000 12.586
25.9200 13.059
25.9400 12.346
25.9600 12.330
25.9800 12.159
26.0000 12.759
26.0200 12.950
26.0400 12.476
26.0600 12.265
26.0800 12.886
26.1000 13.164
26.1200 12.504
26.1400 12.774
26.1600 12.602
26.1800 12.632
26.2000 12.667
26.2200 12.560
26.2400 13.449
26.2600 12.941
26.2800 12.898
26.3000 12.477
26.3200 12.808
26.3400 12.959
26.3600 12.778
26.3800 12.549
26.4000 12.764
26.4200 12.853
26.4400 13.197
26.4600 12.842
26.4800 12.599
26.5000 12.989
26.5200 13.493
26.5400 13.154
26.5600 13.239
26.5800 13.190
26.6000 12.954
26.6200 12.842
26.6400 12.836
26.6600 13.789
26.6800 13.547
26.7000 13.561
26.7200 13.208
26.7400 13.506
26.7600 13.600
26.7800 13.216
26.8000 13.538
26.8200 13.515
26.8400 13.760
26.8600 13.919
26.8800 13.457
26.9000 13.206
26.9200 13.412
26.9400 13.399
26.9600 14.085
26.9800 13.624
27.0000 13.677
27.0200 13.971
27.0400 13.652
27.0600 13.947
27.0800 13.699
27.1000 13.181
27.1200 13.015
27.1400 13.709
27.1600 13.691
27.1800 14.044
27.2000 13.499
27.2200 13.589
27.2400 13.702
27.2600 13.769
27.2800 13.630
27.3000 13.894
27.3200 13.676
27.3400 13.788
27.3600 13.446
27.3800 13.728
27.4000 14.361
27.4200 13.887
27.4400 13.984
27.4600 14.128
27.4800 13.462
27.5000 13.679
27.5200 13.716
27.5400 13.880
27.5600 14.099
27.5800 13.382
27.6000 13.497
27.6200 14.231
27.6400 14.189
27.6600 14.017
27.6800 14.001
27.7000 14.164
27.7200 14.225
27.7400 14.153
27.7600 13.463
27.7800 13.953
27.8000 14.034
27.8200 14.215
27.8400 14.581
27.8600 14.669
27.8800 14.111
27.9000 14.635
27.9200 14.634
27.9400 14.591
27.9600 14.934
27.9800 14.515
28.0000 14.723
28.0200 15.022
28.0400 14.115
28.0600 14.121
28.0800 14.333
28.1000 14.603
28.1200 15.347
28.1400 15.081
28.1600 14.044
28.1800 14.413
28.2000 14.774
28.2200 14.818
28.2400 14.947
28.2600 14.296
28.2800 14.209
28.3000 14.548
28.3200 14.656
28.3400 14.524
28.3600 14.551
28.3800 14.431
28.4000 14.828
28.4200 14.961
28.4400 14.593
28.4600 14.813
28.4800 14.747
28.5000 14.277
28.5200 14.374
28.5400 14.468
28.5600 14.746
28.5800 15.422
28.6000 14.723
28.6200 14.890
28.6400 15.186
28.6600 14.886
28.6800 14.854
28.7000 15.188
28.7200 14.855
28.7400 14.675
28.7600 14.730
28.7800 14.941
28.8000 15.165
28.8200 15.259
28.8400 15.106
28.8600 14.862
28.8800 14.738
28.9000 15.001
28.9200 14.830
28.9400 15.498
28.9600 14.918
28.9800 15.190
29.0000 14.975
29.0200 14.753
29.0400 15.520
29.0600 14.986
29.0800 14.841
29.1000 15.093
29.1200 15.140
29.1400 15.223
29.1600 14.969
29.1800 15.163
29.2000 15.472
29.2200 15.709
29.2400 15.710
29.2600 15.106
29.2800 15.386
29.3000 15.440
29.3200 15.570
29.3400 15.773
29.3600 14.717
29.3800 15.718
29.4000 15.725
29.4200 15.697
29.4400 15.917
29.4600 15.455
29.4800 15.483
29.5000 15.844
29.5200 15.922
29.5400 16.027
29.5600 15.384
29.5800 15.966
29.6000 15.850
29.6200 16.016
29.6400 16.025
29.6600 15.957
29.6800 15.870
29.7000 15.779
29.7200 15.655
29.7400 15.657
29.7600 16.272
29.7800 16.080
29.8000 16.218
29.8200 15.529
29.8400 15.804
29.8600 15.730
29.8800 16.276
29.9000 15.648
29.9200 15.809
29.9400 16.149
29.9600 15.973
29.9800 15.499
30.0000 16.398
30.0200 16.505
30.0400 15.862
30.0600 16.400
30.0800 16.312
30.1000 16.286
30.1200 16.537
30.1400 16.441
30.1600 16.104
30.1800 16.489
30.2000 15.781
30.2200 16.869
30.2400 16.882
30.2600 16.168
30.2800 16.795
30.3000 16.421
30.3200 16.898
30.3400 16.685
30.3600 16.916
30.3800 16.998
30.4000 16.363
30.4200 16.324
30.4400 16.395
30.4600 16.400
30.4800 16.241
30.5000 17.045
30.5200 16.729
30.5400 16.363
30.5600 16.565
30.5800 16.282
30.6000 17.015
30.6200 17.096
30.6400 17.385
30.6600 17.365
30.6800 17.212
30.7000 16.156
30.7200 16.319
30.7400 16.592
30.7600 16.971
30.7800 16.582
30.8000 16.842
30.8200 16.534
30.8400 17.098
30.8600 17.059
30.8800 16.974
30.9000 17.154
30.9200 16.878
30.9400 16.780
30.9600 17.441
30.9800 17.356
31.0000 17.610
31.0200 17.632
31.0400 17.254
31.0600 17.657
31.0800 16.947
31.1000 16.878
31.1200 17.492
31.1400 16.658
31.1600 17.215
31.1800 17.518
31.2000 17.204
31.2200 17.230
31.2400 17.857
31.2600 17.638
31.2800 17.342
31.3000 17.344
31.3200 17.308
31.3400 17.730
31.3600 17.694
31.3800 17.835
31.4000 17.764
31.4200 17.207
31.4400 17.741
31.4600 17.929
31.4800 17.718
31.5000 17.609
31.5200 17.931
31.5400 17.507
31.5600 17.474
31.5800 17.492
31.6000 18.127
31.6200 17.742
31.6400 17.673
31.6600 17.318
31.6800 17.550
31.7000 17.908
31.7200 17.556
31.7400 17.760
31.7600 17.592
31.7800 18.233
31.8000 18.183
31.8200 18.234
31.8400 18.019
31.8600 18.722
31.8800 18.179
31.9000 18.361
31.9200 18.353
31.9400 18.474
31.9600 17.598
31.9800 17.765
32.0000 17.822
32.0200 18.339
32.0400 18.443
32.0600 18.224
32.0800 18.175
32.1000 17.842
32.1200 18.357
32.1400 18.021
32.1600 18.389
32.1800 18.253
32.2000 17.960
32.2200 19.148
32.2400 18.450
32.2600 18.434
32.2800 18.210
32.3000 18.963
32.3200 18.256
32.3400 18.336
32.3600 17.978
32.3800 18.798
32.4000 17.987
32.4200 18.418
32.4400 18.054
32.4600 18.315
32.4800 18.370
32.5000 18.226
32.5200 18.836
32.5400 18.476
32.5600 18.648
32.5800 18.606
32.6000 19.199
32.6200 18.566
32.6400 18.639
32.6600 18.704
32.6800 18.985
32.7000 19.092
32.7200 19.039
32.7400 19.107
32.7600 19.124
32.7800 18.817
32.8000 19.098
32.8200 18.962
32.8400 18.811
32.8600 18.856
32.8800 19.233
32.9000 18.891
32.9200 19.541
32.9400 19.696
32.9600 19.061
32.9800 18.787
33.0000 18.940
33.0200 19.038
33.0400 19.602
33.0600 18.840
33.0800 19.300
33.1000 19.425
33.1200 19.505
33.1400 19.940
33.1600 19.436
33.1800 18.928
33.2000 19.222
33.2200 18.768
33.2400 19.156
33.2600 18.965
33.2800 19.407
33.3000 19.679
33.3200 19.122
33.3400 20.111
33.3600 19.880
33.3800 19.400
33.4000 19.541
33.4200 19.613
33.4400 19.320
33.4600 19.903
33.4800 20.227
33.5000 19.304
33.5200 19.119
33.5400 19.251
33.5600 19.531
33.5800 18.980
33.6000 19.812
33.6200 20.115
33.6400 19.766
33.6600 19.969
33.6800 20.171
33.7000 19.905
33.7200 19.758
33.7400 20.334
33.7600 20.341
33.7800 19.991
33.8000 19.841
33.8200 19.877
33.8400 19.681
33.8600 20.124
33.8800 20.733
33.9000 20.218
33.9200 20.618
33.9400 20.379
33.9600 20.437
33.9800 20.220
34.0000 20.674
34.0200 20.700
34.0400 20.385
34.0600 20.497
34.0800 20.799
34.1000 20.219
34.1200 20.043
34.1400 20.023
34.1600 20.637
34.1800 20.433
34.2000 20.784
34.2200 20.973
34.2400 21.246
34.2600 21.004
34.2800 21.243
34.3000 21.284
34.3200 21.065
34.3400 20.736
34.3600 20.370
34.3800 20.684
34.4000 21.375
34.4200 21.559
34.4400 20.693
34.4600 20.886
34.4800 20.844
34.5000 20.490
34.5200 21.490
34.5400 20.836
34.5600 20.510
34.5800 20.754
34.6000 20.721
34.6200 20.495
34.6400 21.148
34.6600 21.139
34.6800 20.771
34.7000 20.703
34.7200 20.643
34.7400 21.444
34.7600 20.953
34.7800 21.722
34.8000 21.404
34.8200 21.015
34.8400 21.173
34.8600 21.369
34.8800 21.743
34.9000 22.037
34.9200 21.481
34.9400 21.047
34.9600 20.922
34.9800 21.373
35.0000 21.238
35.0200 21.685
35.0400 21.863
35.0600 21.440
35.0800 22.372
35.1000 22.233
35.1200 21.836
35.1400 21.962
35.1600 21.363
35.1800 21.859
35.2000 21.524
35.2200 22.134
35.2400 21.861
35.2600 21.516
35.2800 21.985
35.3000 21.232
35.3200 21.293
35.3400 22.157
35.3600 22.421
35.3800 21.603
35.4000 21.640
35.4200 21.876
35.4400 22.481
35.4600 21.832
35.4800 21.770
35.5000 22.299
35.5200 22.629
35.5400 22.128
35.5600 22.534
35.5800 22.652
35.6000 22.222
35.6200 22.039
35.6400 21.465
35.6600 21.971
35.6800 22.095
35.7000 21.566
35.7200 22.513
35.7400 22.378
35.7600 21.969
35.7800 21.577
35.8000 22.668
35.8200 23.102
35.8400 22.739
35.8600 21.690
35.8800 21.632
35.9000 22.194
35.9200 21.682
35.9400 22.303
35.9600 22.173
35.9800 21.626
36.0000 22.415
36.0200 22.506
36.0400 22.748
36.0600 22.198
36.0800 22.487
36.1000 22.581
36.1200 22.789
36.1400 22.325
36.1600 22.238
36.1800 22.434
36.2000 22.321
36.2200 22.692
36.2400 23.057
36.2600 22.872
36.2800 22.580
36.3000 22.606
36.3200 23.280
36.3400 23.338
36.3600 23.080
36.3800 23.730
36.4000 23.140
36.4200 22.434
36.4400 23.124
36.4600 22.940
36.4800 23.526
36.5000 22.774
36.5200 23.038
36.5400 24.054
36.5600 22.876
36.5800 22.847
36.6000 23.470
36.6200 24.301
36.6400 23.859
36.6600 24.177
36.6800 23.657
36.7000 23.143
36.7200 23.487
36.7400 23.087
36.7600 23.328
36.7800 23.402
36.8000 23.854
36.8200 23.390
36.8400 23.808
36.8600 24.576
36.8800 24.126
36.9000 23.222
36.9200 24.189
36.9400 24.304
36.9600 24.366
36.9800 23.341
37.0000 23.802
37.0200 23.957
37.0400 23.938
37.0600 23.954
37.0800 24.158
37.1000 23.757
37.1200 24.271
37.1400 23.920
37.1600 25.022
37.1800 24.358
37.2000 24.296
37.2200 24.155
37.2400 24.430
37.2600 24.842
37.2800 25.648
37.3000 24.545
37.3200 25.100
37.3400 24.801
37.3600 24.393
37.3800 24.934
37.4000 24.875
37.4200 24.837
37.4400 24.583
37.4600 24.419
37.4800 24.846
37.5000 25.103
37.5200 24.857
37.5400 25.125
37.5600 25.544
37.5800 24.924
37.6000 25.933
37.6200 24.989
37.6400 25.662
37.6600 25.329
37.6800 25.853
37.7000 24.935
37.7200 25.308
37.7400 25.429
37.7600 25.200
37.7800 25.177
37.8000 24.653
37.8200 25.278
37.8400 25.629
37.8600 25.659
37.8800 25.283
37.9000 26.093
37.9200 25.853
37.9400 25.539
37.9600 27.009
37.9800 26.044
38.0000 26.309
38.0200 25.738
38.0400 26.277
38.0600 25.343
38.0800 25.873
38.1000 26.167
38.1200 26.109
38.1400 25.865
38.1600 26.497
38.1800 26.639
38.2000 25.754
38.2200 26.626
38.2400 27.142
38.2600 26.304
38.2800 26.891
38.3000 26.248
38.3200 25.764
38.3400 26.477
38.3600 27.468
38.3800 26.572
38.4000 26.414
38.4200 27.418
38.4400 26.898
38.4600 26.556
38.4800 26.224
38.5000 26.905
38.5200 26.658
38.5400 26.585
38.5600 25.368
38.5800 26.374
38.6000 27.515
38.6200 26.792
38.6400 26.745
38.6600 26.675
38.6800 26.496
38.7000 27.302
38.7200 27.626
38.7400 26.999
38.7600 26.429
38.7800 26.634
38.8000 26.531
38.8200 27.020
38.8400 26.883
38.8600 27.161
38.8800 26.862
38.9000 26.820
38.9200 26.674
38.9400 26.827
38.9600 27.324
38.9800 27.260
39.0000 27.274
39.0200 27.812
39.0400 27.082
39.0600 27.251
39.0800 27.756
39.1000 27.453
39.1200 27.079
39.1400 27.154
39.1600 27.350
39.1800 27.827
39.2000 27.852
39.2200 28.548
39.2400 27.667
39.2600 26.263
39.2800 27.274
39.3000 27.992
39.3200 27.893
39.3400 27.943
39.3600 27.832
39.3800 28.372
39.4000 28.119
39.4200 27.854
39.4400 27.449
39.4600 27.975
39.4800 28.092
39.5000 27.839
39.5200 27.825
39.5400 27.983
39.5600 27.742
39.5800 28.168
39.6000 28.463
39.6200 28.683
39.6400 28.483
39.6600 28.652
39.6800 28.500
39.7000 28.445
39.7200 28.075
39.7400 28.280
39.7600 28.296
39.7800 29.200
39.8000 28.505
39.8200 27.949
39.8400 28.591
39.8600 28.646
39.8800 27.602
39.9000 28.220
39.9200 28.053
39.9400 28.198
39.9600 28.035
39.9800 28.249
40.0000 28.147
40.0200 28.791
40.0400 28.660
40.0600 28.348
40.0800 27.637
40.1000 27.921
40.1200 28.753
40.1400 27.923
40.1600 28.113
40.1800 28.341
40.2000 27.702
40.2200 27.865
40.2400 28.550
40.2600 28.546
40.2800 28.399
40.3000 28.861
40.3200 29.040
40.3400 29.290
40.3600 28.884
40.3800 28.786
40.4000 28.560
40.4200 28.203
40.4400 29.074
40.4600 28.687
40.4800 29.197
40.5000 29.990
40.5200 29.562
40.5400 29.137
40.5600 29.506
40.5800 28.748
40.6000 28.690
40.6200 28.570
40.6400 28.718
40.6600 28.919
40.6800 28.820
40.7000 29.456
40.7200 29.736
40.7400 29.132
40.7600 29.331
40.7800 29.849
40.8000 30.288
40.8200 29.929
40.8400 29.034
40.8600 28.744
40.8800 28.907
40.9000 29.889
40.9200 29.790
40.9400 29.946
40.9600 29.588
40.9800 29.270
41.0000 29.673
41.0200 29.311
41.0400 29.297
41.0600 28.910
41.0800 28.731
41.1000 29.170
41.1200 29.636
41.1400 29.984
41.1600 29.571
41.1800 29.446
41.2000 28.559
41.2200 29.621
41.2400 30.068
41.2600 30.165
41.2800 30.245
41.3000 29.972
41.3200 29.948
41.3400 29.969
41.3600 29.486
41.3800 29.383
41.4000 29.991
41.4200 29.873
41.4400 29.511
41.4600 30.249
41.4800 30.230
41.5000 30.369
41.5200 30.151
41.5400 29.699
41.5600 31.620
41.5800 30.269
41.6000 29.882
41.6200 30.626
41.6400 29.940
41.6600 29.943
41.6800 29.811
41.7000 29.570
41.7200 29.587
41.7400 29.780
41.7600 29.950
41.7800 29.410
41.8000 30.822
41.8200 30.226
41.8400 30.274
41.8600 29.963
41.8800 30.622
41.9000 30.108
41.9200 30.854
41.9400 30.251
41.9600 29.870
41.9800 30.340
42.0000 30.747
42.0200 30.329
42.0400 29.840
42.0600 30.500
42.0800 30.268
42.1000 30.631
42.1200 30.062
42.1400 30.161
42.1600 29.717
42.1800 29.980
42.2000 30.460
42.2200 29.901
42.2400 30.646
42.2600 29.942
42.2800 31.232
42.3000 30.742
42.3200 30.007
42.3400 31.023
42.3600 31.641
42.3800 30.994
42.4000 31.083
42.4200 30.634
42.4400 31.354
42.4600 31.389
42.4800 31.567
42.5000 31.442
42.5200 31.339
42.5400 31.638
42.5600 32.033
42.5800 32.032
42.6000 31.180
42.6200 31.427
42.6400 31.097
42.6600 31.606
42.6800 29.945
42.7000 31.482
42.7200 29.994
42.7400 30.436
42.7600 31.268
42.7800 30.705
42.8000 30.325
42.8200 31.188
42.8400 32.125
42.8600 31.181
42.8800 31.343
42.9000 31.343
42.9200 32.169
42.9400 31.598
42.9600 31.440
42.9800 31.546
43.0000 30.957
43.0200 31.689
43.0400 31.526
43.0600 31.498
43.0800 31.643
43.1000 32.003
43.1200 31.659
43.1400 31.669
43.1600 32.454
43.1800 31.278
43.2000 31.853
43.2200 30.952
43.2400 30.890
43.2600 31.460
43.2800 31.924
43.3000 31.744
43.3200 31.461
43.3400 30.917
43.3600 32.183
43.3800 32.008
43.4000 31.249
43.4200 31.435
43.4400 31.432
43.4600 31.601
43.4800 31.337
43.5000 31.681
43.5200 32.464
43.5400 32.644
43.5600 32.495
43.5800 32.600
43.6000 31.877
43.6200 32.207
43.6400 31.904
43.6600 33.007
43.6800 32.717
43.7000 32.414
43.7200 32.950
43.7400 32.856
43.7600 32.740
43.7800 32.523
43.8000 33.802
43.8200 32.949
43.8400 33.495
43.8600 33.517
43.8800 33.894
43.9000 34.565
43.9200 33.591
43.9400 34.373
43.9600 35.923
43.9800 36.106
44.0000 36.646
44.0200 38.108
44.0400 39.481
44.0600 42.647
44.0800 46.677
44.1000 52.432
44.1200 55.933
44.1400 62.745
44.1600 63.429
44.1800 64.454
44.2000 62.682
44.2200 60.935
44.2400 59.067
44.2600 55.911
44.2800 55.047
44.3000 51.629
44.3200 48.400
44.3400 45.788
44.3600 42.328
44.3800 39.785
44.4000 38.039
44.4200 36.432
44.4400 36.121
44.4600 35.887
44.4800 34.369
44.5000 34.742
44.5200 33.832
44.5400 33.077
44.5600 33.896
44.5800 33.379
44.6000 32.287
44.6200 32.821
44.6400 32.396
44.6600 33.423
44.6800 33.452
44.7000 33.109
44.7200 32.717
44.7400 33.596
44.7600 33.192
44.7800 33.855
44.8000 33.637
44.8200 33.700
44.8400 36.029
44.8600 39.224
44.8800 41.629
44.9000 41.378
44.9200 39.390
44.9400 39.324
44.9600 39.023
44.9800 39.814
45.0000 41.405
45.0200 41.431
45.0400 39.372
45.0600 38.815
45.0800 37.976
45.1000 37.995
45.1200 38.470
45.1400 38.771
45.1600 38.561
45.1800 39.029
45.2000 38.342
45.2200 38.695
45.2400 38.812
45.2600 38.287
45.2800 37.729
45.3000 37.811
45.3200 37.601
45.3400 36.288
45.3600 36.798
45.3800 36.879
45.4000 35.427
45.4200 35.441
45.4400 34.974
45.4600 34.326
45.4800 34.208
45.5000 33.593
45.5200 34.586
45.5400 34.548
45.5600 33.562
45.5800 32.571
45.6000 33.514
45.6200 32.979
45.6400 33.515
45.6600 32.883
45.6800 33.003
45.7000 33.201
45.7200 33.251
45.7400 33.075
45.7600 33.691
45.7800 32.595
45.8000 32.903
45.8200 33.380
45.8400 31.853
45.8600 32.376
45.8800 32.414
45.9000 32.644
45.9200 32.621
45.9400 33.574
45.9600 33.134
45.9800 33.360
46.0000 33.046
46.0200 33.253
46.0400 33.390
46.0600 32.589
46.0800 32.631
46.1000 32.645
46.1200 33.460
46.1400 32.967
46.1600 32.904
46.1800 33.177
46.2000 33.192
46.2200 33.443
46.2400 33.726
46.2600 33.012
46.2800 33.006
46.3000 33.011
46.3200 33.543
46.3400 33.552
46.3600 33.341
46.3800 33.343
46.4000 33.334
46.4200 33.077
46.4400 33.808
46.4600 33.823
46.4800 33.276
46.5000 33.399
46.5200 33.522
46.5400 32.990
46.5600 31.652
46.5800 32.715
46.6000 32.806
46.6200 33.020
46.6400 33.894
46.6600 33.316
46.6800 33.386
46.7000 33.661
46.7200 33.449
46.7400 33.506
46.7600 33.646
46.7800 33.602
46.8000 33.837
46.8200 33.348
46.8400 33.010
46.8600 32.353
46.8800 34.441
46.9000 33.620
46.9200 33.195
46.9400 33.577
46.9600 33.401
46.9800 32.337
47.0000 33.612
47.0200 33.032
47.0400 32.556
47.0600 33.076
47.0800 33.160
47.1000 34.069
47.1200 35.111
47.1400 33.846
47.1600 34.070
47.1800 34.172
47.2000 33.151
47.2200 34.026
47.2400 33.196
47.2600 33.315
47.2800 34.036
47.3000 33.856
47.3200 34.086
47.3400 34.394
47.3600 34.334
47.3800 34.598
47.4000 34.487
47.4200 33.974
47.4400 33.341
47.4600 34.260
47.4800 34.224
47.5000 33.813
47.5200 34.183
47.5400 33.613
47.5600 33.837
47.5800 32.510
47.6000 34.386
47.6200 34.596
47.6400 33.547
47.6600 34.740
47.6800 34.371
47.7000 34.355
47.7200 34.605
47.7400 34.598
47.7600 34.168
47.7800 34.352
47.8000 33.445
47.8200 34.399
47.8400 34.894
47.8600 34.081
47.8800 34.966
47.9000 35.433
47.9200 34.597
47.9400 35.107
47.9600 34.294
47.9800 34.305
48.0000 34.668
48.0200 35.576
48.0400 34.487
48.0600 34.087
48.0800 34.277
48.1000 34.196
48.1200 33.868
48.1400 34.573
48.1600 34.368
48.1800 34.737
48.2000 34.557
48.2200 34.274
48.2400 34.920
48.2600 34.292
48.2800 35.533
48.3000 34.914
48.3200 35.018
48.3400 34.881
48.3600 35.022
48.3800 35.065
48.4000 34.982
48.4200 34.454
48.4400 35.257
48.4600 36.146
48.4800 35.502
48.5000 34.901
48.5200 34.496
48.5400 34.876
48.5600 35.245
48.5800 35.444
48.6000 35.246
48.6200 34.812
48.6400 35.026
48.6600 35.367
48.6800 35.359
48.7000 34.687
48.7200 34.885
48.7400 35.105
48.7600 34.846
48.7800 35.141
48.8000 35.332
48.8200 35.242
48.8400 35.214
48.8600 35.341
48.8800 34.811
48.9000 35.059
48.9200 35.787
48.9400 34.811
48.9600 35.289
48.9800 35.738
49.0000 35.256
49.0200 35.195
49.0400 34.700
49.0600 34.905
49.0800 34.681
49.1000 36.345
49.1200 35.740
49.1400 35.897
49.1600 35.377
49.1800 35.703
49.2000 35.123
49.2200 35.247
49.2400 35.583
49.2600 35.816
49.2800 36.381
49.3000 36.496
49.3200 36.074
49.3400 35.695
49.3600 35.767
49.3800 36.353
49.4000 35.799
49.4200 36.162
49.4400 35.073
49.4600 35.332
49.4800 35.565
49.5000 36.069
49.5200 35.981
49.5400 35.925
49.5600 34.807
49.5800 35.318
49.6000 35.003
49.6200 35.136
49.6400 35.232
49.6600 35.020
49.6800 35.482
49.7000 35.883
49.7200 35.655
49.7400 35.703
49.7600 35.480
49.7800 35.802
49.8000 35.338
49.8200 35.545
49.8400 36.746
49.8600 35.859
49.8800 36.312
49.9000 36.967
49.9200 36.399
49.9400 36.304
49.9600 36.669
49.9800 36.068
50.0000 35.677
50.0200 36.024
50.0400 35.935
50.0600 36.969
50.0800 35.662
50.1000 35.956
50.1200 35.520
50.1400 36.787
50.1600 36.802
50.1800 36.554
50.2000 36.385
50.2200 37.040
50.2400 37.560
50.2600 35.947
50.2800 36.885
50.3000 36.258
50.3200 36.686
50.3400 36.022
50.3600 35.704
50.3800 36.704
50.4000 35.860
50.4200 37.488
50.4400 37.183
50.4600 35.942
50.4800 36.340
50.5000 37.499
50.5200 36.516
50.5400 36.582
50.5600 36.791
50.5800 36.883
50.6000 36.605
50.6200 36.986
50.6400 36.533
50.6600 37.976
50.6800 37.246
50.7000 36.948
50.7200 37.374
50.7400 37.282
50.7600 36.672
50.7800 36.499
50.8000 36.519
50.8200 36.541
50.8400 37.648
50.8600 36.728
50.8800 36.751
50.9000 37.693
50.9200 37.238
50.9400 37.444
50.9600 38.227
50.9800 37.226
51.0000 37.517
51.0200 37.120
51.0400 36.859
51.0600 36.941
51.0800 37.871
51.1000 37.552
51.1200 36.725
51.1400 38.580
51.1600 37.444
51.1800 37.591
51.2000 38.646
51.2200 37.901
51.2400 38.213
51.2600 37.919
51.2800 37.919
51.3000 38.185
51.3200 38.588
51.3400 37.804
51.3600 37.864
51.3800 37.471
51.4000 37.227
51.4200 37.696
51.4400 37.463
51.4600 38.699
51.4800 38.221
51.5000 37.626
51.5200 37.938
51.5400 37.844
51.5600 38.528
51.5800 38.125
51.6000 37.365
51.6200 36.865
51.6400 38.149
51.6600 37.922
51.6800 38.521
51.7000 38.055
51.7200 38.308
51.7400 38.325
51.7600 38.843
51.7800 37.836
51.8000 38.623
51.8200 38.316
51.8400 38.829
51.8600 37.966
51.8800 38.107
51.9000 37.467
51.9200 38.164
51.9400 38.090
51.9600 38.129
51.9800 38.268
52.0000 38.488
52.0200 38.596
52.0400 37.891
52.0600 38.399
52.0800 38.145
52.1000 37.512
52.1200 38.001
52.1400 37.291
52.1600 38.122
52.1800 38.618
52.2000 37.942
52.2200 37.922
52.2400 38.042
52.2600 38.042
52.2800 38.988
52.3000 38.730
52.3200 38.441
52.3400 38.161
52.3600 38.934
52.3800 38.962
52.4000 38.751
52.4200 38.648
52.4400 38.443
52.4600 37.778
52.4800 38.631
52.5000 38.977
52.5200 38.465
52.5400 39.207
52.5600 37.742
52.5800 38.517
52.6000 38.595
52.6200 38.024
52.6400 37.800
52.6600 38.372
52.6800 38.989
52.7000 38.078
52.7200 38.625
52.7400 38.725
52.7600 38.860
52.7800 38.396
52.8000 37.620
52.8200 38.616
52.8400 38.806
52.8600 38.987
52.8800 38.386
52.9000 38.060
52.9200 38.307
52.9400 39.799
52.9600 38.839
52.9800 39.032
53.0000 38.642
53.0200 39.784
53.0400 39.512
53.0600 39.452
53.0800 37.924
53.1000 39.279
53.1200 39.440
53.1400 38.847
53.1600 38.669
53.1800 39.347
53.2000 38.719
53.2200 39.613
53.2400 39.459
53.2600 39.793
53.2800 39.221
53.3000 39.673
53.3200 40.175
53.3400 39.481
53.3600 39.098
53.3800 39.887
53.4000 39.148
53.4200 38.639
53.4400 39.416
53.4600 39.132
53.4800 39.329
53.5000 39.096
53.5200 38.548
53.5400 39.174
53.5600 39.496
53.5800 38.953
53.6000 39.115
53.6200 39.520
53.6400 39.378
53.6600 39.161
53.6800 39.575
53.7000 40.269
53.7200 39.383
53.7400 39.665
53.7600 39.427
53.7800 39.076
53.8000 39.214
53.8200 39.375
53.8400 39.063
53.8600 39.379
53.8800 39.872
53.9000 38.942
53.9200 39.219
53.9400 39.557
53.9600 39.197
53.9800 39.371
54.0000 39.012
54.0200 39.663
54.0400 40.210
54.0600 40.081
54.0800 39.387
54.1000 39.343
54.1200 39.261
54.1400 40.066
54.1600 39.492
54.1800 39.210
54.2000 40.019
54.2200 39.818
54.2400 39.484
54.2600 38.083
54.2800 39.175
54.3000 39.089
54.3200 40.308
54.3400 40.266
54.3600 39.034
54.3800 39.552
54.4000 39.731
54.4200 39.800
54.4400 39.011
54.4600 38.711
54.4800 39.102
54.5000 40.973
54.5200 40.464
54.5400 39.475
54.5600 40.006
54.5800 39.318
54.6000 38.902
54.6200 39.871
54.6400 39.769
54.6600 40.087
54.6800 40.650
54.7000 39.859
54.7200 40.634
54.7400 40.239
54.7600 38.891
54.7800 39.564
54.8000 39.887
54.8200 39.601
54.8400 39.539
54.8600 39.476
54.8800 40.569
54.9000 41.528
54.9200 40.961
54.9400 40.241
54.9600 40.063
54.9800 39.625
55.0000 40.504
55.0200 40.244
55.0400 39.683
55.0600 38.805
55.0800 39.965
55.1000 40.879
55.1200 41.075
55.1400 40.492
55.1600 40.636
55.1800 39.634
55.2000 40.206
55.2200 39.692
55.2400 40.847
55.2600 40.375
55.2800 40.220
55.3000 39.587
55.3200 39.921
55.3400 40.686
55.3600 39.971
55.3800 40.727
55.4000 40.447
55.4200 40.549
55.4400 41.098
55.4600 41.091
55.4800 41.975
55.5000 40.564
55.5200 39.730
55.5400 40.651
55.5600 40.613
55.5800 41.193
55.6000 40.249
55.6200 39.644
55.6400 40.222
55.6600 40.228
55.6800 40.088
55.7000 40.128
55.7200 41.141
55.7400 40.681
55.7600 39.751
55.7800 40.284
55.8000 40.366
55.8200 40.466
55.8400 41.100
55.8600 40.652
55.8800 40.862
55.9000 40.214
55.9200 40.685
55.9400 40.874
55.9600 40.984
55.9800 40.228
56.0000 39.932
56.0200 40.843
56.0400 41.169
56.0600 41.304
56.0800 40.636
56.1000 40.994
56.1200 41.954
56.1400 41.427
56.1600 41.553
56.1800 40.547
56.2000 41.475
56.2200 40.557
56.2400 41.179
56.2600 42.855
56.2800 41.493
56.3000 41.354
56.3200 41.802
56.3400 41.613
56.3600 40.890
56.3800 41.095
56.4000 42.011
56.4200 41.086
56.4400 41.225
56.4600 40.613
56.4800 41.239
56.5000 41.056
56.5200 41.293
56.5400 40.979
56.5600 41.356
56.5800 41.661
56.6000 41.215
56.6200 41.019
56.6400 42.527
56.6600 41.523
56.6800 40.545
56.7000 41.266
56.7200 41.713
56.7400 41.838
56.7600 41.878
56.7800 41.725
56.8000 41.660
56.8200 40.912
56.8400 41.828
56.8600 42.002
56.8800 42.486
56.9000 42.231
56.9200 41.657
56.9400 42.221
56.9600 41.666
56.9800 41.952
57.0000 42.608
57.0200 42.474
57.0400 42.972
57.0600 42.311
57.0800 42.293
57.1000 42.037
57.1200 41.536
57.1400 42.361
57.1600 41.460
57.1800 42.918
57.2000 42.797
57.2200 42.523
57.2400 42.234
57.2600 41.989
57.2800 43.113
57.3000 42.691
57.3200 41.846
57.3400 42.183
57.3600 42.907
57.3800 42.857
57.4000 42.510
57.4200 42.927
57.4400 42.429
57.4600 42.681
57.4800 42.098
57.5000 43.018
57.5200 42.671
57.5400 42.585
57.5600 42.805
57.5800 44.312
57.6000 43.362
57.6200 43.275
57.6400 42.063
57.6600 42.524
57.6800 43.074
57.7000 42.276
57.7200 42.616
57.7400 43.735
57.7600 42.795
57.7800 43.073
57.8000 43.461
57.8200 43.771
57.8400 41.465
57.8600 43.699
57.8800 43.960
57.9000 43.356
57.9200 44.570
57.9400 44.313
57.9600 44.404
57.9800 43.583
58.0000 43.853
58.0200 44.547
58.0400 45.025
58.0600 44.870
58.0800 44.221
58.1000 44.062
58.1200 45.828
58.1400 45.641
58.1600 45.229
58.1800 46.609
58.2000 45.645
58.2200 47.008
58.2400 46.413
58.2600 46.171
58.2800 47.271
58.3000 46.935
58.3200 48.699
58.3400 48.309
58.3600 48.761
58.3800 49.463
58.4000 48.890
58.4200 49.550
58.4400 50.575
58.4600 50.828
58.4800 51.093
58.5000 50.793
58.5200 51.043
58.5400 51.504
58.5600 51.138
58.5800 50.645
58.6000 50.552
58.6200 50.352
58.6400 52.234
58.6600 51.728
58.6800 51.845
58.7000 51.013
58.7200 51.569
58.7400 51.172
58.7600 50.912
58.7800 51.043
58.8000 51.282
58.8200 50.823
58.8400 51.964
58.8600 51.588
58.8800 50.904
58.9000 50.612
58.9200 49.320
58.9400 49.445
58.9600 49.645
58.9800 49.620
59.0000 48.745
59.0200 49.071
59.0400 49.308
59.0600 48.081
59.0800 47.563
59.1000 46.944
59.1200 46.718
59.1400 46.138
59.1600 45.854
59.1800 45.659
59.2000 46.015
59.2200 46.464
59.2400 44.898
59.2600 46.301
59.2800 44.415
59.3000 45.574
59.3200 44.330
59.3400 44.523
59.3600 44.027
59.3800 44.406
59.4000 43.976
59.4200 44.574
59.4400 44.414
59.4600 43.570
59.4800 44.201
59.5000 44.578
59.5200 44.690
59.5400 44.484
59.5600 44.289
59.5800 44.638
59.6000 45.145
59.6200 44.729
59.6400 44.642
59.6600 43.694
59.6800 45.457
59.7000 44.415
59.7200 44.395
59.7400 43.591
59.7600 43.796
59.7800 44.392
59.8000 43.745
59.8200 44.439
59.8400 45.545
59.8600 44.167
59.8800 43.937
59.9000 43.714
59.9200 43.895
59.9400 44.954
59.9600 44.622
59.9800 44.267
60.0000 43.533
60.0200 43.885
60.0400 44.279
60.0600 44.286
60.0800 43.934
60.1000 44.234
60.1200 44.547
60.1400 43.530
60.1600 43.679
60.1800 44.411
60.2000 45.630
60.2200 44.367
60.2400 43.506
60.2600 44.514
60.2800 43.955
60.3000 45.101
60.3200 44.332
60.3400 44.059
60.3600 44.871
60.3800 44.198
60.4000 44.373
60.4200 44.636
60.4400 44.753
60.4600 45.289
60.4800 45.793
60.5000 44.150
60.5200 44.508
60.5400 43.787
60.5600 44.114
60.5800 44.605
60.6000 44.132
60.6200 44.927
60.6400 44.004
60.6600 44.451
60.6800 45.506
60.7000 44.994
60.7200 44.638
60.7400 45.064
60.7600 43.971
60.7800 44.855
60.8000 44.204
60.8200 44.193
60.8400 45.495
60.8600 44.421
60.8800 44.775
60.9000 44.048
60.9200 43.861
60.9400 44.962
60.9600 44.333
60.9800 45.211
61.0000 45.203
61.0200 45.219
61.0400 44.155
61.0600 44.460
61.0800 45.180
61.1000 44.619
61.1200 44.494
61.1400 44.455
61.1600 44.830
61.1800 45.679
61.2000 45.493
61.2200 45.422
61.2400 45.578
61.2600 45.305
61.2800 44.547
61.3000 44.251
61.3200 44.811
61.3400 44.769
61.3600 45.551
61.3800 45.278
61.4000 45.379
61.4200 45.203
61.4400 44.910
61.4600 45.802
61.4800 45.177
61.5000 45.060
61.5200 45.736
61.5400 46.525
61.5600 45.378
61.5800 44.747
61.6000 45.704
61.6200 46.209
61.6400 45.338
61.6600 44.757
61.6800 45.198
61.7000 44.860
61.7200 45.929
61.7400 45.421
61.7600 46.155
61.7800 44.982
61.8000 45.813
61.8200 45.453
61.8400 44.939
61.8600 45.555
61.8800 45.743
61.9000 45.041
61.9200 46.196
61.9400 45.112
61.9600 46.118
61.9800 45.203
62.0000 46.232
62.0200 45.480
62.0400 45.732
62.0600 45.196
62.0800 45.254
62.1000 45.403
62.1200 45.641
62.1400 45.263
62.1600 45.312
62.1800 45.839
62.2000 45.088
62.2200 45.428
62.2400 45.490
62.2600 45.740
62.2800 45.798
62.3000 45.372
62.3200 45.697
62.3400 46.104
62.3600 45.480
62.3800 45.447
62.4000 46.020
62.4200 46.827
62.4400 47.231
62.4600 45.742
62.4800 45.297
62.5000 45.687
62.5200 44.691
62.5400 45.237
62.5600 45.178
62.5800 46.471
62.6000 46.221
62.6200 44.644
62.6400 45.944
62.6600 45.815
62.6800 45.564
62.7000 45.240
62.7200 46.240
62.7400 46.176
62.7600 45.479
62.7800 46.087
62.8000 45.909
62.8200 45.645
62.8400 45.720
62.8600 46.146
62.8800 46.137
62.9000 45.452
62.9200 45.626
62.9400 46.572
62.9600 46.676
62.9800 46.437
63.0000 45.554
63.0200 45.885
63.0400 45.941
63.0600 46.145
63.0800 45.657
63.1000 45.358
63.1200 46.065
63.1400 46.618
63.1600 46.601
63.1800 45.453
63.2000 46.858
63.2200 45.976
63.2400 45.010
63.2600 46.607
63.2800 46.077
63.3000 45.798
63.3200 46.721
63.3400 47.154
63.3600 45.773
63.3800 45.577
63.4000 46.330
63.4200 45.964
63.4400 46.560
63.4600 46.454
63.4800 46.967
63.5000 46.434
63.5200 46.201
63.5400 46.281
63.5600 47.050
63.5800 46.659
63.6000 46.816
63.6200 46.714
63.6400 47.309
63.6600 46.319
63.6800 45.811
63.7000 46.573
63.7200 46.694
63.7400 47.236
63.7600 46.824
63.7800 46.593
63.8000 46.764
63.8200 47.035
63.8400 46.825
63.8600 46.571
63.8800 47.360
63.9000 47.804
63.9200 46.837
63.9400 47.384
63.9600 48.105
63.9800 48.308
64.0000 47.579
64.0200 48.012
64.0400 48.475
64.0600 48.800
64.0800 47.873
64.1000 48.958
64.1200 48.754
64.1400 49.257
64.1600 50.799
64.1800 51.268
64.2000 52.065
64.2200 51.310
64.2400 52.819
64.2600 54.284
64.2800 55.210
64.3000 55.220
64.3200 56.352
64.3400 55.400
64.3600 56.872
64.3800 55.618
64.4000 55.430
64.4200 56.099
64.4400 56.249
64.4600 55.379
64.4800 54.003
64.5000 54.370
64.5200 54.613
64.5400 55.099
64.5600 51.945
64.5800 52.223
64.6000 51.326
64.6200 50.404
64.6400 50.448
64.6600 49.862
64.6800 48.569
64.7000 49.220
64.7200 47.975
64.7400 48.965
64.7600 48.948
64.7800 48.654
64.8000 47.739
64.8200 48.077
64.8400 47.465
64.8600 48.573
64.8800 46.618
64.9000 47.503
64.9200 47.323
64.9400 48.204
64.9600 47.069
64.9800 48.072
65.0000 48.433
65.0200 47.212
65.0400 47.634
65.0600 48.370
65.0800 48.279
65.1000 46.937
65.1200 48.211
65.1400 48.752
65.1600 47.552
65.1800 47.717
65.2000 47.922
65.2200 48.001
65.2400 46.963
65.2600 47.466
65.2800 47.688
65.3000 49.405
65.3200 48.280
65.3400 46.272
65.3600 47.893
65.3800 47.296
65.4000 47.618
65.4200 46.725
65.4400 46.368
65.4600 47.947
65.4800 47.182
65.5000 47.962
65.5200 48.337
65.5400 46.552
65.5600 48.545
65.5800 47.948
65.6000 48.221
65.6200 48.114
65.6400 47.279
65.6600 47.818
65.6800 47.676
65.7000 47.955
65.7200 47.849
65.7400 49.252
65.7600 48.359
65.7800 48.043
65.8000 47.851
65.8200 47.712
65.8400 48.810
65.8600 47.555
65.8800 48.063
65.9000 47.267
65.9200 48.093
65.9400 47.951
65.9600 47.629
65.9800 48.212
66.0000 48.992
66.0200 48.027
66.0400 48.640
66.0600 48.745
66.0800 49.048
66.1000 48.860
66.1200 48.631
66.1400 49.106
66.1600 48.256
66.1800 48.496
66.2000 48.704
66.2200 48.038
66.2400 47.365
66.2600 48.427
66.2800 48.064
66.3000 47.815
66.3200 48.089
66.3400 49.173
66.3600 48.365
66.3800 48.290
66.4000 48.696
66.4200 47.754
66.4400 48.209
66.4600 47.525
66.4800 49.152
66.5000 47.451
66.5200 48.041
66.5400 48.242
66.5600 49.034
66.5800 48.819
66.6000 48.637
66.6200 49.585
66.6400 49.973
66.6600 48.509
66.6800 48.650
66.7000 48.168
66.7200 48.522
66.7400 48.864
66.7600 48.045
66.7800 48.680
66.8000 50.008
66.8200 48.167
66.8400 47.440
66.8600 48.386
66.8800 48.760
66.9000 48.699
66.9200 47.946
66.9400 48.526
66.9600 48.558
66.9800 48.975
67.0000 48.824
67.0200 48.231
67.0400 49.465
67.0600 49.420
67.0800 49.435
67.1000 49.094
67.1200 49.040
67.1400 49.117
67.1600 49.360
67.1800 48.900
67.2000 50.134
67.2200 49.742
67.2400 50.072
67.2600 50.839
67.2800 49.458
67.3000 49.574
67.3200 50.839
67.3400 50.633
67.3600 49.258
67.3800 49.450
67.4000 50.759
67.4200 51.045
67.4400 50.296
67.4600 50.247
67.4800 49.772
67.5000 50.239
67.5200 50.844
67.5400 51.252
67.5600 51.460
67.5800 50.475
67.6000 51.122
67.6200 51.462
67.6400 50.968
67.6600 51.063
67.6800 49.963
67.7000 51.343
67.7200 49.808
67.7400 51.555
67.7600 51.608
67.7800 51.828
67.8000 51.306
67.8200 50.038
67.8400 49.766
67.8600 52.254
67.8800 50.824
67.9000 49.919
67.9200 50.147
67.9400 48.631
67.9600 50.106
67.9800 50.419
68.0000 50.469
68.0200 50.290
68.0400 49.857
68.0600 49.518
68.0800 49.937
68.1000 48.722
68.1200 48.794
68.1400 48.966
68.1600 50.321
68.1800 49.593
68.2000 50.225
68.2200 50.888
68.2400 49.760
68.2600 49.818
68.2800 49.765
68.3000 50.323
68.3200 50.107
68.3400 49.038
68.3600 49.770
68.3800 49.200
68.4000 49.059
68.4200 49.101
68.4400 49.654
68.4600 50.561
68.4800 49.622
68.5000 49.449
68.5200 49.761
68.5400 49.872
68.5600 49.867
68.5800 49.675
68.6000 48.467
68.6200 49.674
68.6400 49.650
68.6600 50.771
68.6800 49.741
68.7000 50.441
68.7200 49.312
68.7400 49.499
68.7600 49.875
68.7800 49.751
68.8000 50.683
68.8200 50.166
68.8400 50.515
68.8600 50.196
68.8800 50.814
68.9000 50.686
68.9200 50.234
68.9400 50.162
68.9600 48.978
68.9800 50.266
69.0000 50.016
69.0200 49.262
69.0400 49.926
69.0600 50.039
69.0800 50.716
69.1000 49.906
69.1200 49.011
69.1400 50.224
69.1600 49.978
69.1800 50.246
69.2000 50.187
69.2200 50.881
69.2400 50.765
69.2600 49.392
69.2800 50.392
69.3000 50.526
69.3200 50.998
69.3400 50.292
69.3600 49.996
69.3800 50.873
69.4000 50.386
69.4200 49.721
69.4400 49.634
69.4600 49.641
69.4800 50.841
69.5000 50.878
69.5200 50.640
69.5400 51.300
69.5600 49.665
69.5800 50.043
69.6000 49.371
69.6200 50.093
69.6400 49.237
69.6600 49.804
69.6800 50.502
69.7000 49.513
69.7200 50.386
69.7400 51.063
69.7600 51.202
69.7800 50.722
69.8000 50.735
69.8200 51.269
69.8400 51.012
69.8600 51.338
69.8800 51.238
69.9000 49.805
69.9200 50.761
69.9400 51.261
69.9600 50.715
69.9800 50.742
70.0000 52.229
70.0200 52.014
70.0400 50.979
70.0600 50.489
70.0800 51.124
70.1000 49.854
70.1200 51.062
70.1400 51.405
70.1600 50.873
70.1800 50.407
70.2000 50.656
70.2200 50.618
70.2400 50.645
70.2600 51.006
70.2800 51.448
70.3000 50.719
70.3200 51.659
70.3400 51.212
70.3600 51.209
70.3800 51.468
70.4000 51.348
70.4200 51.585
70.4400 51.756
70.4600 50.938
70.4800 51.265
70.5000 51.030
70.5200 50.880
70.5400 51.607
70.5600 51.779
70.5800 51.115
70.6000 51.218
70.6200 52.300
70.6400 51.014
70.6600 51.356
70.6800 50.595
70.7000 51.274
70.7200 51.574
70.7400 51.821
70.7600 52.539
70.7800 52.013
70.8000 52.279
70.8200 51.650
70.8400 52.040
70.8600 52.043
70.8800 50.492
70.9000 51.668
70.9200 51.754
70.9400 52.980
70.9600 51.214
70.9800 51.715
71.0000 50.903
71.0200 51.078
71.0400 52.225
71.0600 52.854
71.0800 51.596
71.1000 52.606
71.1200 53.272
71.1400 52.110
71.1600 51.773
71.1800 51.177
71.2000 51.974
71.2200 51.880
71.2400 52.274
71.2600 51.278
71.2800 51.130
71.3000 52.852
71.3200 50.657
71.3400 52.155
71.3600 52.413
71.3800 50.889
71.4000 52.314
71.4200 52.551
71.4400 52.057
71.4600 52.011
71.4800 52.252
71.5000 51.061
71.5200 52.406
71.5400 52.388
71.5600 52.464
71.5800 51.866
71.6000 52.496
71.6200 51.685
71.6400 51.831
71.6600 52.755
71.6800 52.446
71.7000 52.545
71.7200 51.362
71.7400 53.817
71.7600 52.762
71.7800 51.493
71.8000 52.582
71.8200 52.596
71.8400 52.153
71.8600 52.968
71.8800 52.476
71.9000 52.134
71.9200 52.192
71.9400 52.624
71.9600 52.673
71.9800 52.788
72.0000 52.712
72.0200 53.443
72.0400 52.550
72.0600 52.668
72.0800 53.283
72.1000 53.084
72.1200 53.604
72.1400 53.063
72.1600 53.095
72.1800 51.738
72.2000 51.402
72.2200 52.282
72.2400 52.087
72.2600 52.313
72.2800 52.703
72.3000 52.970
72.3200 53.807
72.3400 51.789
72.3600 52.575
72.3800 52.383
72.4000 53.246
72.4200 52.982
72.4400 52.992
72.4600 53.226
72.4800 52.906
72.5000 53.375
72.5200 53.451
72.5400 53.575
72.5600 53.173
72.5800 53.029
72.6000 53.035
72.6200 52.889
72.6400 52.740
72.6600 52.889
72.6800 52.865
72.7000 53.423
72.7200 53.191
72.7400 53.996
72.7600 53.254
72.7800 52.980
72.8000 53.553
72.8200 52.894
72.8400 53.471
72.8600 53.696
72.8800 52.945
72.9000 53.865
72.9200 54.227
72.9400 52.874
72.9600 52.089
72.9800 53.743
73.0000 53.542
73.0200 53.066
73.0400 53.708
73.0600 53.442
73.0800 53.262
73.1000 53.668
73.1200 53.146
73.1400 54.177
73.1600 52.597
73.1800 54.316
73.2000 53.568
73.2200 52.813
73.2400 54.040
73.2600 52.703
73.2800 53.922
73.3000 53.168
73.3200 53.940
73.3400 53.277
73.3600 53.846
73.3800 53.351
73.4000 53.391
73.4200 53.513
73.4400 53.320
73.4600 53.341
73.4800 53.506
73.5000 53.069
73.5200 54.162
73.5400 53.678
73.5600 53.547
73.5800 53.011
73.6000 54.358
73.6200 54.110
73.6400 54.135
73.6600 54.107
73.6800 54.363
73.7000 54.095
73.7200 53.154
73.7400 54.683
73.7600 53.439
73.7800 53.746
73.8000 54.149
73.8200 54.207
73.8400 53.904
73.8600 54.132
73.8800 54.411
73.9000 54.489
73.9200 53.847
73.9400 53.272
73.9600 53.322
73.9800 54.060
74.0000 53.057
74.0200 53.372
74.0400 53.127
74.0600 53.850
74.0800 53.406
74.1000 53.609
74.1200 53.972
74.1400 54.132
74.1600 53.603
74.1800 54.253
74.2000 54.942
74.2200 53.360
74.2400 53.503
74.2600 54.062
74.2800 53.782
74.3000 54.544
74.3200 54.327
74.3400 54.207
74.3600 54.645
74.3800 53.846
74.4000 53.836
74.4200 53.391
74.4400 54.103
74.4600 54.612
74.4800 54.090
74.5000 54.389
74.5200 55.828
74.5400 55.763
74.5600 55.061
74.5800 53.786
74.6000 55.142
74.6200 54.257
74.6400 53.520
74.6600 54.884
74.6800 55.699
74.7000 55.390
74.7200 54.223
74.7400 55.080
74.7600 54.145
74.7800 54.888
74.8000 54.369
74.8200 54.610
74.8400 54.132
74.8600 53.846
74.8800 55.295
74.9000 55.186
74.9200 55.241
74.9400 54.494
74.9600 54.977
74.9800 55.115
75.0000 55.180
75.0200 55.962
75.0400 55.426
75.0600 55.289
75.0800 55.518
75.1000 53.998
75.1200 55.346
75.1400 55.003
75.1600 55.768
75.1800 56.550
75.2000 56.346
75.2200 55.095
75.2400 54.277
75.2600 54.881
75.2800 55.294
75.3000 55.140
75.3200 54.805
75.3400 55.657
75.3600 55.255
75.3800 55.110
75.4000 55.021
75.4200 54.764
75.4400 55.315
75.4600 55.524
75.4800 55.470
75.5000 55.756
75.5200 55.610
75.5400 55.716
75.5600 55.492
75.5800 55.279
75.6000 55.581
75.6200 55.865
75.6400 55.385
75.6600 55.645
75.6800 55.648
75.7000 54.696
75.7200 55.284
75.7400 55.215
75.7600 54.691
75.7800 54.716
75.8000 54.763
75.8200 55.541
75.8400 55.230
75.8600 55.545
75.8800 55.759
75.9000 55.784
75.9200 56.060
75.9400 55.883
75.9600 55.460
75.9800 55.551
76.0000 55.780
76.0200 54.667
76.0400 56.912
76.0600 56.214
76.0800 55.621
76.1000 56.240
76.1200 55.200
76.1400 55.915
76.1600 57.058
76.1800 57.461
76.2000 56.598
76.2200 56.589
76.2400 56.568
76.2600 55.876
76.2800 57.377
76.3000 57.008
76.3200 56.061
76.3400 56.685
76.3600 55.525
76.3800 56.336
76.4000 56.001
76.4200 56.035
76.4400 56.745
76.4600 57.549
76.4800 56.934
76.5000 55.940
76.5200 55.462
76.5400 55.274
76.5600 55.120
76.5800 56.821
76.6000 57.206
76.6200 56.601
76.6400 55.959
76.6600 56.374
76.6800 55.835
76.7000 56.288
76.7200 56.496
76.7400 56.489
76.7600 57.467
76.7800 56.804
76.8000 56.733
76.8200 57.576
76.8400 56.832
76.8600 56.316
76.8800 57.002
76.9000 56.838
76.9200 57.043
76.9400 56.967
76.9600 55.583
76.9800 56.281
77.0000 56.842
77.0200 58.014
77.0400 57.690
77.0600 56.666
77.0800 57.666
77.1000 56.997
77.1200 57.409
77.1400 57.550
77.1600 57.040
77.1800 56.953
77.2000 55.956
77.2200 57.003
77.2400 57.403
77.2600 56.921
77.2800 57.022
77.3000 56.960
77.3200 57.322
77.3400 56.945
77.3600 57.213
77.3800 56.076
77.4000 58.239
77.4200 58.107
77.4400 57.387
77.4600 57.133
77.4800 56.895
77.5000 57.475
77.5200 57.619
77.5400 57.324
77.5600 57.572
77.5800 57.455
77.6000 57.551
77.6200 57.683
77.6400 56.875
77.6600 56.817
77.6800 58.543
77.7000 58.474
77.7200 57.513
77.7400 56.991
77.7600 57.253
77.7800 56.326
77.8000 57.390
77.8200 58.267
77.8400 57.162
77.8600 56.860
77.8800 57.597
77.9000 56.411
77.9200 57.069
77.9400 57.761
77.9600 58.063
77.9800 57.761
78.0000 57.522
78.0200 57.728
78.0400 57.168
78.0600 57.697
78.0800 57.253
78.1000 57.656
78.1200 57.653
78.1400 57.841
78.1600 58.208
78.1800 57.969
78.2000 57.909
78.2200 57.942
78.2400 57.995
78.2600 58.251
78.2800 57.978
78.3000 58.497
78.3200 58.092
78.3400 57.441
78.3600 58.028
78.3800 58.389
78.4000 57.182
78.4200 57.540
78.4400 58.028
78.4600 57.611
78.4800 57.749
78.5000 58.082
78.5200 58.122
78.5400 58.036
78.5600 58.410
78.5800 58.347
78.6000 58.129
78.6200 58.353
78.6400 58.859
78.6600 58.421
78.6800 59.148
78.7000 59.829
78.7200 58.891
78.7400 58.181
78.7600 59.127
78.7800 58.920
78.8000 59.116
78.8200 58.140
78.8400 57.880
78.8600 58.460
78.8800 58.183
78.9000 58.043
78.9200 58.422
78.9400 58.716
78.9600 58.731
78.9800 58.965
79.0000 57.677
79.0200 58.559
79.0400 57.995
79.0600 58.221
79.0800 58.820
79.1000 59.399
79.1200 57.566
79.1400 58.715
79.1600 58.202
79.1800 58.826
79.2000 59.169
79.2200 59.206
79.2400 59.996
79.2600 59.316
79.2800 59.209
79.3000 58.959
79.3200 59.753
79.3400 58.759
79.3600 59.147
79.3800 58.748
79.4000 59.362
79.4200 59.353
79.4400 59.145
79.4600 59.143
79.4800 59.281
79.5000 59.086
79.5200 59.652
79.5400 59.467
79.5600 59.537
79.5800 58.824
79.6000 58.264
79.6200 58.729
79.6400 59.614
79.6600 59.899
79.6800 58.672
79.7000 59.609
79.7200 59.675
79.7400 59.605
79.7600 60.188
79.7800 59.292
79.8000 58.425
79.8200 59.742
79.8400 60.056
79.8600 60.745
79.8800 60.656
79.9000 59.918
79.9200 59.753
79.9400 58.979
79.9600 59.499
79.9800 60.186
80.0000 60.773
