'Id: "" Comment: "" Operator: "Lab Manager" Anode: "Cu" Scantype: "Coupled TwoTheta/Theta" TimePerStep: "113.4655" X: "9999" Y: "9999" Z: "-2.700037" 
20.0000 8.256
20.0200 7.977
20.0400 7.839
20.0600 8.180
20.0800 8.051
20.1000 7.959
20.1200 7.864
20.1400 8.180
20.1600 8.255
20.1800 8.189
20.2000 8.095
20.2200 7.719
20.2400 7.938
20.2600 7.997
20.2800 8.094
20.3000 8.098
20.3200 8.260
20.3400 8.430
20.3600 8.764
20.3800 8.026
20.4000 8.200
20.4200 8.391
20.4400 8.462
20.4600 8.452
20.4800 8.468
20.5000 8.398
20.5200 8.608
20.5400 8.508
20.5600 8.593
20.5800 8.550
20.6000 8.584
20.6200 8.119
20.6400 8.098
20.6600 8.490
20.6800 8.477
20.7000 8.901
20.7200 8.564
20.7400 8.374
20.7600 8.364
20.7800 8.403
20.8000 8.832
20.8200 8.605
20.8400 8.241
20.8600 8.676
20.8800 8.414
20.9000 9.140
20.9200 8.599
20.9400 8.826
20.9600 8.904
20.9800 8.695
21.0000 8.750
21.0200 8.667
21.0400 8.628
21.0600 9.015
21.0800 8.464
21.1000 8.684
21.1200 9.118
21.1400 8.387
21.1600 8.801
21.1800 8.941
21.2000 9.040
21.2200 8.841
21.2400 9.207
21.2600 8.697
21.2800 8.916
21.3000 8.904
21.3200 9.054
21.3400 9.246
21.3600 8.876
21.3800 8.685
21.4000 9.026
21.4200 8.545
21.4400 9.256
21.4600 9.580
21.4800 9.223
21.5000 9.226
21.5200 8.995
21.5400 9.025
21.5600 9.000
21.5800 8.908
21.6000 9.150
21.6200 9.367
21.6400 9.246
21.6600 9.354
21.6800 8.441
21.7000 9.077
21.7200 9.324
21.7400 8.935
21.7600 8.696
21.7800 9.028
21.8000 9.400
21.8200 9.051
21.8400 9.331
21.8600 9.084
21.8800 9.573
21.9000 9.053
21.9200 9.198
21.9400 9.407
21.9600 9.551
21.9800 9.776
22.0000 9.947
22.0200 9.311
22.0400 9.364
22.0600 9.496
22.0800 8.997
22.1000 9.783
22.1200 9.543
22.1400 9.810
22.1600 9.882
22.1800 9.588
22.2000 9.563
22.2200 9.435
22.2400 9.667
22.2600 9.408
22.2800 9.495
22.3000 9.571
22.3200 10.085
22.3400 9.946
22.3600 9.506
22.3800 9.822
22.4000 9.590
22.4200 10.018
22.4400 10.141
22.4600 9.463
22.4800 9.734
22.5000 9.738
22.5200 10.212
22.5400 9.315
22.5600 9.822
22.5800 9.472
22.6000 9.911
22.6200 10.211
22.6400 9.805
22.6600 9.932
22.6800 10.261
22.7000 9.931
22.7200 10.208
22.7400 10.047
22.7600 10.036
22.7800 9.545
22.8000 9.470
22.8200 10.402
22.8400 9.973
22.8600 9.969
22.8800 10.141
22.9000 10.110
22.9200 9.920
22.9400 10.145
22.9600 9.830
22.9800 10.203
23.0000 10.071
23.0200 10.028
23.0400 10.002
23.0600 10.389
23.0800 10.031
23.1000 10.092
23.1200 10.273
23.1400 10.190
23.1600 10.077
23.1800 10.568
23.2000 10.124
23.2200 10.470
23.2400 10.187
23.2600 10.303
23.2800 10.735
23.3000 10.252
23.3200 10.004
23.3400 10.395
23.3600 10.380
23.3800 9.970
23.4000 10.489
23.4200 10.517
23.4400 10.779
23.4600 9.969
23.4800 9.878
23.5000 10.630
23.5200 10.434
23.5400 10.017
23.5600 10.264
23.5800 10.013
23.6000 10.281
23.6200 10.819
23.6400 10.718
23.6600 10.656
23.6800 10.581
23.7000 10.558
23.7200 10.544
23.7400 10.663
23.7600 10.570
23.7800 10.563
23.8000 10.651
23.8200 10.729
23.8400 10.720
23.8600 10.741
23.8800 10.633
23.9000 10.543
23.9200 10.341
23.9400 10.328
23.9600 10.357
23.9800 10.881
24.0000 10.697
24.0200 10.698
24.0400 10.645
24.0600 10.847
24.0800 11.111
24.1000 11.038
24.1200 11.137
24.1400 10.831
24.1600 11.093
24.1800 11.413
24.2000 10.918
24.2200 11.062
24.2400 11.030
24.2600 10.260
24.2800 11.504
24.3000 11.221
24.3200 10.920
24.3400 10.929
24.3600 10.704
24.3800 10.483
24.4000 11.375
24.4200 10.609
24.4400 11.417
24.4600 11.456
24.4800 10.760
24.5000 10.702
24.5200 11.416
24.5400 11.201
24.5600 11.338
24.5800 11.177
24.6000 11.200
24.6200 11.455
24.6400 11.066
24.6600 11.183
24.6800 11.179
24.7000 11.751
24.7200 11.604
24.7400 11.764
24.7600 11.845
24.7800 11.279
24.8000 11.193
24.8200 11.215
24.8400 11.582
24.8600 11.787
24.8800 11.530
24.9000 11.547
24.9200 11.777
24.9400 11.334
24.9600 11.756
24.9800 11.423
25.0000 11.271
25.0200 12.470
25.0400 11.888
25.0600 11.302
25.0800 11.127
25.1000 12.094
25.1200 11.658
25.1400 11.776
25.1600 11.620
25.1800 11.491
25.2000 11.872
25.2200 11.876
25.2400 11.619
25.2600 11.783
25.2800 11.761
25.3000 11.792
25.3200 12.136
25.3400 11.751
25.3600 11.751
25.3800 11.598
25.4000 11.728
25.4200 11.855
25.4400 11.577
25.4600 11.966
25.4800 12.069
25.5000 12.374
25.5200 12.132
25.5400 11.841
25.5600 12.085
25.5800 12.238
25.6000 11.875
25.6200 11.642
25.6400 11.491
25.6600 12.078
25.6800 12.408
25.7000 12.327
25.7200 12.363
25.7400 12.606
25.7600 11.719
25.7800 12.264
25.8000 12.171
25.8200 12.154
25.8400 12.049
25.8600 12.299
25.8800 11.804
25.9000 11.668
25.9200 11.837
25.9400 12.507
25.9600 12.472
25.9800 12.184
26.0000 12.755
26.0200 12.253
26.0400 12.018
26.0600 12.528
26.0800 12.294
26.1000 12.327
26.1200 12.526
26.1400 12.245
26.1600 11.889
26.1800 12.654
26.2000 12.243
26.2200 12.547
26.2400 12.432
26.2600 13.007
26.2800 12.632
26.3000 12.271
26.3200 12.906
26.3400 12.939
26.3600 12.577
26.3800 12.566
26.4000 12.632
26.4200 13.179
26.4400 12.739
26.4600 12.909
26.4800 12.970
26.5000 12.918
26.5200 12.457
26.5400 12.464
26.5600 12.605
26.5800 12.564
26.6000 12.597
26.6200 13.126
26.6400 13.225
26.6600 13.026
26.6800 12.749
26.7000 12.357
26.7200 12.582
26.7400 12.601
26.7600 13.037
26.7800 13.280
26.8000 13.162
26.8200 13.122
26.8400 13.253
26.8600 13.157
26.8800 13.522
26.9000 13.310
26.9200 13.611
26.9400 13.314
26.9600 13.442
26.9800 13.473
27.0000 13.627
27.0200 13.478
27.0400 13.257
27.0600 13.501
27.0800 13.390
27.1000 13.140
27.1200 12.872
27.1400 13.378
27.1600 13.546
27.1800 12.947
27.2000 13.627
27.2200 13.681
27.2400 14.081
27.2600 13.089
27.2800 13.631
27.3000 13.440
27.3200 13.417
27.3400 13.447
27.3600 12.972
27.3800 13.497
27.4000 13.309
27.4200 13.200
27.4400 13.558
27.4600 13.745
27.4800 13.903
27.5000 13.993
27.5200 13.328
27.5400 13.522
27.5600 13.334
27.5800 13.469
27.6000 13.698
27.6200 13.646
27.6400 13.572
27.6600 13.273
27.6800 13.444
27.7000 13.423
27.7200 13.640
27.7400 13.487
27.7600 13.907
27.7800 14.076
27.8000 13.864
27.8200 13.608
27.8400 13.829
27.8600 13.897
27.8800 13.879
27.9000 14.476
27.9200 13.110
27.9400 13.698
27.9600 14.141
27.9800 14.084
28.0000 14.085
28.0200 13.697
28.0400 14.319
28.0600 13.930
28.0800 14.204
28.1000 14.473
28.1200 14.216
28.1400 14.052
28.1600 14.739
28.1800 14.068
28.2000 13.831
28.2200 14.178
28.2400 14.189
28.2600 14.544
28.2800 14.122
28.3000 13.529
28.3200 14.548
28.3400 14.360
28.3600 14.418
28.3800 14.443
28.4000 14.309
28.4200 14.550
28.4400 14.504
28.4600 14.550
28.4800 14.034
28.5000 14.313
28.5200 14.243
28.5400 14.792
28.5600 14.389
28.5800 15.039
28.6000 15.005
28.6200 14.633
28.6400 14.704
28.6600 14.603
28.6800 14.627
28.7000 14.776
28.7200 14.783
28.7400 14.501
28.7600 14.887
28.7800 14.730
28.8000 14.987
28.8200 14.615
28.8400 14.068
28.8600 14.796
28.8800 14.288
28.9000 14.751
28.9200 14.661
28.9400 15.148
28.9600 14.469
28.9800 14.424
29.0000 15.462
29.0200 15.078
29.0400 15.332
29.0600 15.150
29.0800 14.825
29.1000 14.980
29.1200 14.655
29.1400 14.842
29.1600 15.016
29.1800 15.256
29.2000 14.823
29.2200 15.280
29.2400 15.076
29.2600 15.419
29.2800 14.550
29.3000 15.180
29.3200 14.868
29.3400 15.039
29.3600 14.909
29.3800 14.918
29.4000 15.499
29.4200 15.227
29.4400 15.557
29.4600 14.819
29.4800 15.652
29.5000 15.330
29.5200 16.034
29.5400 15.277
29.5600 15.219
29.5800 15.704
29.6000 15.587
29.6200 15.892
29.6400 16.525
29.6600 16.329
29.6800 15.560
29.7000 15.666
29.7200 16.446
29.7400 16.945
29.7600 16.477
29.7800 16.661
29.8000 16.057
29.8200 16.115
29.8400 15.926
29.8600 15.987
29.8800 15.296
29.9000 15.665
29.9200 16.151
29.9400 15.624
29.9600 16.026
29.9800 15.782
30.0000 15.873
30.0200 16.356
30.0400 16.252
30.0600 16.514
30.0800 16.680
30.1000 16.622
30.1200 15.776
30.1400 16.427
30.1600 16.299
30.1800 16.037
30.2000 16.310
30.2200 15.405
30.2400 16.130
30.2600 16.283
30.2800 16.260
30.3000 16.449
30.3200 16.251
30.3400 16.255
30.3600 15.850
30.3800 16.057
30.4000 16.263
30.4200 16.347
30.4400 16.228
30.4600 15.700
30.4800 16.790
30.5000 16.562
30.5200 16.359
30.5400 16.240
30.5600 16.024
30.5800 16.351
30.6000 16.255
30.6200 16.719
30.6400 16.268
30.6600 15.891
30.6800 17.126
30.7000 16.524
30.7200 16.645
30.7400 16.525
30.7600 16.541
30.7800 16.506
30.8000 16.864
30.8200 16.604
30.8400 16.814
30.8600 16.853
30.8800 17.118
30.9000 17.341
30.9200 17.276
30.9400 16.877
30.9600 16.795
30.9800 16.673
31.0000 16.370
31.0200 16.530
31.0400 16.658
31.0600 18.117
31.0800 16.946
31.1000 17.171
31.1200 16.975
31.1400 16.839
31.1600 16.776
31.1800 16.871
31.2000 16.558
31.2200 16.981
31.2400 17.124
31.2600 17.531
31.2800 17.475
31.3000 16.785
31.3200 17.105
31.3400 17.411
31.3600 17.106
31.3800 16.651
31.4000 17.445
31.4200 16.999
31.4400 17.366
31.4600 17.450
31.4800 16.916
31.5000 16.579
31.5200 17.354
31.5400 17.092
31.5600 17.260
31.5800 17.005
31.6000 17.035
31.6200 17.019
31.6400 17.310
31.6600 17.329
31.6800 17.187
31.7000 16.935
31.7200 17.989
31.7400 17.718
31.7600 17.488
31.7800 17.249
31.8000 17.782
31.8200 17.659
31.8400 18.020
31.8600 17.441
31.8800 17.601
31.9000 17.888
31.9200 18.228
31.9400 17.315
31.9600 17.567
31.9800 18.349
32.0000 17.753
32.0200 17.737
32.0400 17.891
32.0600 17.681
32.0800 17.502
32.1000 17.862
32.1200 18.180
32.1400 17.900
32.1600 17.925
32.1800 17.861
32.2000 17.884
32.2200 18.187
32.2400 18.171
32.2600 18.248
32.2800 18.227
32.3000 18.399
32.3200 17.959
32.3400 18.345
32.3600 18.407
32.3800 18.970
32.4000 18.102
32.4200 18.356
32.4400 17.741
32.4600 18.485
32.4800 18.242
32.5000 18.074
32.5200 18.215
32.5400 18.341
32.5600 18.475
32.5800 18.372
32.6000 18.659
32.6200 18.410
32.6400 18.463
32.6600 18.853
32.6800 18.495
32.7000 18.241
32.7200 19.063
32.7400 18.685
32.7600 18.305
32.7800 18.602
32.8000 18.830
32.8200 19.389
32.8400 18.925
32.8600 18.899
32.8800 18.471
32.9000 18.680
32.9200 18.818
32.9400 18.891
32.9600 18.881
32.9800 19.426
33.0000 18.740
33.0200 19.734
33.0400 19.145
33.0600 19.204
33.0800 18.670
33.1000 18.333
33.1200 18.587
33.1400 19.015
33.1600 18.738
33.1800 19.086
33.2000 19.189
33.2200 19.506
33.2400 18.899
33.2600 19.232
33.2800 19.242
33.3000 19.182
33.3200 19.306
33.3400 19.283
33.3600 18.712
33.3800 18.380
33.4000 19.327
33.4200 19.803
33.4400 18.977
33.4600 19.043
33.4800 18.885
33.5000 19.170
33.5200 19.676
33.5400 19.709
33.5600 19.518
33.5800 19.178
33.6000 19.233
33.6200 19.390
33.6400 18.923
33.6600 19.731
33.6800 19.352
33.7000 20.048
33.7200 19.902
33.7400 19.793
33.7600 20.319
33.7800 20.576
33.8000 19.989
33.8200 19.974
33.8400 19.608
33.8600 19.724
33.8800 19.129
33.9000 19.522
33.9200 19.909
33.9400 19.471
33.9600 20.044
33.9800 20.298
34.0000 20.234
34.0200 20.653
34.0400 20.034
34.0600 19.892
34.0800 19.886
34.1000 19.952
34.1200 19.901
34.1400 19.979
34.1600 19.607
34.1800 19.861
34.2000 19.911
34.2200 19.573
34.2400 20.608
34.2600 20.333
34.2800 20.507
34.3000 20.857
34.3200 20.406
34.3400 20.497
34.3600 20.616
34.3800 19.983
34.4000 20.652
34.4200 20.009
34.4400 20.662
34.4600 20.382
34.4800 20.813
34.5000 20.860
34.5200 20.717
34.5400 20.953
34.5600 20.338
34.5800 20.721
34.6000 20.891
34.6200 21.034
34.6400 20.341
34.6600 20.690
34.6800 20.716
34.7000 20.495
34.7200 20.717
34.7400 21.113
34.7600 21.140
34.7800 20.751
34.8000 20.418
34.8200 20.967
34.8400 21.993
34.8600 22.003
34.8800 22.175
34.9000 21.975
34.9200 21.713
34.9400 22.074
34.9600 22.384
34.9800 22.494
35.0000 22.895
35.0200 22.858
35.0400 22.715
35.0600 22.626
35.0800 22.466
35.1000 21.962
35.1200 22.366
35.1400 21.590
35.1600 22.277
35.1800 21.493
35.2000 21.472
35.2200 21.811
35.2400 21.898
35.2600 21.418
35.2800 21.944
35.3000 21.614
35.3200 21.604
35.3400 21.169
35.3600 21.019
35.3800 22.597
35.4000 21.405
35.4200 21.424
35.4400 21.765
35.4600 22.151
35.4800 21.424
35.5000 21.616
35.5200 21.261
35.5400 21.843
35.5600 21.503
35.5800 21.885
35.6000 21.840
35.6200 21.804
35.6400 22.028
35.6600 21.544
35.6800 21.963
35.7000 21.994
35.7200 21.814
35.7400 21.436
35.7600 21.365
35.7800 22.058
35.8000 21.718
35.8200 21.776
35.8400 22.223
35.8600 21.713
35.8800 22.177
35.9000 21.583
35.9200 21.770
35.9400 22.061
35.9600 22.332
35.9800 21.994
36.0000 21.909
36.0200 21.402
36.0400 22.192
36.0600 22.285
36.0800 22.332
36.1000 21.774
36.1200 21.676
36.1400 21.997
36.1600 23.042
36.1800 22.824
36.2000 22.025
36.2200 22.838
36.2400 22.286
36.2600 22.125
36.2800 22.155
36.3000 22.252
36.3200 22.074
36.3400 22.059
36.3600 22.313
36.3800 22.496
36.4000 23.028
36.4200 23.465
36.4400 22.788
36.4600 22.842
36.4800 22.913
36.5000 22.581
36.5200 23.475
36.5400 22.973
36.5600 22.160
36.5800 22.642
36.6000 22.421
36.6200 23.053
36.6400 23.233
36.6600 22.789
36.6800 23.577
36.7000 23.598
36.7200 22.661
36.7400 23.221
36.7600 22.970
36.7800 24.179
36.8000 23.487
36.8200 23.826
36.8400 23.487
36.8600 23.357
36.8800 23.642
36.9000 23.232
36.9200 23.350
36.9400 24.665
36.9600 24.137
36.9800 24.300
37.0000 23.576
37.0200 23.361
37.0400 23.480
37.0600 23.537
37.0800 23.633
37.1000 24.489
37.1200 23.820
37.1400 24.053
37.1600 23.869
37.1800 23.902
37.2000 23.624
37.2200 23.752
37.2400 23.892
37.2600 23.738
37.2800 23.894
37.3000 23.915
37.3200 24.317
37.3400 24.802
37.3600 25.624
37.3800 24.522
37.4000 25.364
37.4200 24.664
37.4400 25.219
37.4600 24.887
37.4800 24.736
37.5000 25.158
37.5200 24.529
37.5400 24.422
37.5600 25.259
37.5800 24.751
37.6000 24.141
37.6200 23.714
37.6400 25.024
37.6600 25.162
37.6800 25.531
37.7000 24.206
37.7200 24.580
37.7400 25.207
37.7600 24.414
37.7800 25.197
37.8000 24.720
37.8200 24.549
37.8400 25.482
37.8600 25.819
37.8800 25.005
37.9000 25.170
37.9200 25.820
37.9400 25.241
37.9600 25.588
37.9800 25.309
38.0000 25.475
38.0200 25.490
38.0400 25.004
38.0600 24.715
38.0800 25.261
38.1000 25.344
38.1200 25.612
38.1400 25.645
38.1600 25.696
38.1800 25.300
38.2000 25.810
38.2200 25.479
38.2400 25.422
38.2600 25.710
38.2800 26.124
38.3000 26.477
38.3200 25.194
38.3400 25.477
38.3600 26.469
38.3800 25.565
38.4000 25.605
38.4200 24.785
38.4400 26.240
38.4600 26.555
38.4800 25.888
38.5000 26.265
38.5200 26.732
38.5400 26.774
38.5600 26.339
38.5800 26.223
38.6000 26.407
38.6200 27.062
38.6400 26.408
38.6600 25.855
38.6800 25.321
38.7000 27.028
38.7200 26.989
38.7400 26.195
38.7600 26.884
38.7800 26.737
38.8000 26.856
38.8200 26.248
38.8400 26.297
38.8600 26.646
38.8800 26.185
38.9000 26.226
38.9200 26.868
38.9400 27.092
38.9600 26.877
38.9800 27.021
39.0000 26.961
39.0200 27.090
39.0400 26.932
39.0600 26.592
39.0800 26.511
39.1000 26.740
39.1200 26.749
39.1400 27.098
39.1600 26.994
39.1800 27.607
39.2000 26.584
39.2200 26.718
39.2400 27.220
39.2600 27.278
39.2800 27.195
39.3000 27.462
39.3200 26.560
39.3400 27.476
39.3600 28.071
39.3800 27.768
39.4000 27.437
39.4200 27.392
39.4400 27.279
39.4600 26.976
39.4800 27.464
39.5000 27.432
39.5200 27.460
39.5400 27.386
39.5600 27.845
39.5800 27.939
39.6000 27.964
39.6200 28.019
39.6400 28.618
39.6600 27.718
39.6800 27.855
39.7000 27.771
39.7200 27.408
39.7400 27.528
39.7600 27.496
39.7800 27.748
39.8000 27.436
39.8200 27.395
39.8400 27.714
39.8600 27.923
39.8800 27.526
39.9000 27.390
39.9200 27.452
39.9400 27.241
39.9600 28.535
39.9800 27.285
40.0000 27.503
40.0200 27.329
40.0400 27.799
40.0600 27.476
40.0800 27.828
40.1000 27.076
40.1200 27.627
40.1400 27.928
40.1600 27.765
40.1800 28.543
40.2000 27.625
40.2200 28.195
40.2400 27.750
40.2600 27.300
40.2800 28.108
40.3000 29.044
40.3200 29.598
40.3400 28.206
40.3600 28.289
40.3800 28.510
40.4000 28.069
40.4200 28.373
40.4400 28.724
40.4600 28.399
40.4800 29.102
40.5000 28.952
40.5200 28.698
40.5400 28.786
40.5600 28.879
40.5800 27.887
40.6000 29.325
40.6200 28.035
40.6400 28.118
40.6600 27.949
40.6800 28.218
40.7000 28.532
40.7200 28.376
40.7400 29.413
40.7600 29.249
40.7800 29.055
40.8000 29.256
40.8200 29.425
40.8400 29.084
40.8600 28.455
40.8800 28.685
40.9000 27.964
40.9200 27.901
40.9400 28.254
40.9600 28.816
40.9800 28.565
41.0000 29.150
41.0200 28.794
41.0400 28.721
41.0600 28.927
41.0800 29.687
41.1000 28.811
41.1200 29.260
41.1400 28.713
41.1600 29.339
41.1800 28.207
41.2000 29.101
41.2200 29.729
41.2400 29.719
41.2600 29.012
41.2800 29.516
41.3000 29.055
41.3200 28.757
41.3400 29.511
41.3600 29.907
41.3800 30.082
41.4000 29.389
41.4200 29.127
41.4400 28.264
41.4600 28.834
41.4800 28.915
41.5000 29.465
41.5200 29.173
41.5400 29.651
41.5600 29.577
41.5800 30.038
41.6000 29.513
41.6200 29.198
41.6400 28.722
41.6600 30.103
41.6800 30.039
41.7000 29.291
41.7200 29.027
41.7400 29.818
41.7600 29.869
41.7800 29.566
41.8000 29.524
41.8200 29.586
41.8400 29.052
41.8600 29.909
41.8800 30.141
41.9000 30.228
41.9200 30.033
41.9400 29.767
41.9600 29.812
41.9800 29.573
42.0000 29.557
42.0200 30.326
42.0400 29.784
42.0600 29.559
42.0800 29.672
42.1000 30.245
42.1200 30.486
42.1400 30.042
42.1600 30.028
42.1800 30.388
42.2000 30.334
42.2200 30.274
42.2400 30.261
42.2600 30.959
42.2800 30.482
42.3000 29.680
42.3200 31.137
42.3400 30.452
42.3600 30.393
42.3800 30.582
42.4000 30.876
42.4200 30.842
42.4400 31.030
42.4600 31.562
42.4800 30.401
42.5000 31.575
42.5200 32.598
42.5400 31.808
42.5600 31.945
42.5800 32.110
42.6000 31.018
42.6200 31.353
42.6400 31.254
42.6600 31.474
42.6800 31.128
42.7000 31.612
42.7200 30.817
42.7400 31.560
42.7600 30.995
42.7800 30.750
42.8000 30.416
42.8200 30.896
42.8400 30.474
42.8600 31.426
42.8800 30.563
42.9000 30.047
42.9200 29.721
42.9400 29.919
42.9600 30.885
42.9800 30.359
43.0000 30.588
43.0200 30.715
43.0400 30.405
43.0600 30.375
43.0800 30.778
43.1000 31.440
43.1200 30.902
43.1400 31.265
43.1600 30.480
43.1800 31.795
43.2000 31.704
43.2200 31.368
43.2400 30.569
43.2600 30.424
43.2800 30.265
43.3000 30.804
43.3200 30.425
43.3400 30.513
43.3600 31.098
43.3800 31.026
43.4000 31.053
43.4200 30.401
43.4400 30.691
43.4600 31.767
43.4800 32.161
43.5000 30.811
43.5200 31.857
43.5400 32.548
43.5600 31.260
43.5800 32.381
43.6000 31.466
43.6200 31.851
43.6400 31.547
43.6600 32.584
43.6800 32.672
43.7000 32.135
43.7200 32.407
43.7400 33.032
43.7600 33.538
43.7800 32.013
43.8000 32.828
43.8200 33.305
43.8400 32.268
43.8600 32.414
43.8800 32.348
43.9000 33.745
43.9200 33.461
43.9400 33.616
43.9600 34.216
43.9800 35.395
44.0000 36.475
44.0200 37.672
44.0400 40.557
44.0600 43.657
44.0800 47.652
44.1000 53.331
44.1200 59.021
44.1400 62.307
44.1600 63.071
44.1800 61.066
44.2000 60.088
44.2200 56.768
44.2400 55.625
44.2600 53.446
44.2800 51.480
44.3000 46.864
44.3200 43.750
44.3400 40.481
44.3600 38.230
44.3800 36.047
44.4000 34.943
44.4200 34.356
44.4400 34.247
44.4600 34.112
44.4800 32.879
44.5000 33.282
44.5200 33.322
44.5400 33.184
44.5600 32.720
44.5800 32.510
44.6000 33.254
44.6200 32.414
44.6400 32.966
44.6600 33.140
44.6800 32.211
44.7000 33.308
44.7200 33.022
44.7400 32.383
44.7600 32.932
44.7800 33.752
44.8000 35.826
44.8200 37.839
44.8400 42.877
44.8600 43.033
44.8800 40.951
44.9000 40.720
44.9200 39.731
44.9400 41.487
44.9600 44.218
44.9800 44.109
45.0000 42.062
45.0200 40.592
45.0400 40.698
45.0600 40.626
45.0800 40.543
45.1000 40.220
45.1200 39.813
45.1400 40.329
45.1600 40.182
45.1800 39.430
45.2000 39.751
45.2200 38.838
45.2400 38.798
45.2600 38.414
45.2800 38.134
45.3000 38.573
45.3200 37.308
45.3400 37.357
45.3600 37.024
45.3800 35.836
45.4000 36.037
45.4200 36.220
45.4400 35.548
45.4600 34.994
45.4800 33.305
45.5000 33.206
45.5200 32.864
45.5400 32.705
45.5600 32.065
45.5800 32.939
45.6000 32.580
45.6200 32.301
45.6400 32.771
45.6600 32.903
45.6800 32.469
45.7000 31.853
45.7200 32.121
45.7400 32.732
45.7600 32.814
45.7800 32.205
45.8000 32.472
45.8200 32.447
45.8400 32.940
45.8600 33.134
45.8800 31.683
45.9000 32.614
45.9200 32.243
45.9400 32.843
45.9600 32.283
45.9800 33.360
46.0000 32.446
46.0200 32.792
46.0400 33.167
46.0600 31.850
46.0800 31.790
46.1000 32.797
46.1200 33.097
46.1400 33.206
46.1600 32.781
46.1800 32.315
46.2000 32.797
46.2200 32.756
46.2400 32.043
46.2600 33.037
46.2800 33.017
46.3000 32.855
46.3200 32.972
46.3400 32.502
46.3600 32.722
46.3800 33.087
46.4000 32.890
46.4200 32.661
46.4400 32.826
46.4600 32.857
46.4800 33.722
46.5000 32.868
46.5200 32.640
46.5400 32.553
46.5600 32.573
46.5800 32.632
46.6000 32.650
46.6200 32.608
46.6400 32.551
46.6600 33.428
46.6800 32.447
46.7000 32.776
46.7200 33.464
46.7400 32.894
46.7600 33.228
46.7800 33.139
46.8000 33.582
46.8200 32.593
46.8400 33.415
46.8600 32.884
46.8800 32.651
46.9000 32.838
46.9200 33.772
46.9400 32.770
46.9600 32.934
46.9800 34.054
47.0000 32.792
47.0200 33.242
47.0400 33.626
47.0600 33.441
47.0800 32.562
47.1000 32.687
47.1200 32.915
47.1400 32.802
47.1600 32.674
47.1800 33.296
47.2000 33.577
47.2200 33.269
47.2400 33.047
47.2600 32.489
47.2800 34.019
47.3000 33.553
47.3200 33.461
47.3400 33.733
47.3600 33.310
47.3800 33.643
47.4000 32.720
47.4200 33.219
47.4400 32.963
47.4600 33.326
47.4800 33.515
47.5000 33.353
47.5200 33.213
47.5400 33.049
47.5600 33.056
47.5800 32.629
47.6000 33.395
47.6200 33.838
47.6400 34.905
47.6600 33.316
47.6800 33.666
47.7000 33.223
47.7200 33.017
47.7400 33.574
47.7600 32.748
47.7800 33.635
47.8000 33.917
47.8200 33.471
47.8400 34.135
47.8600 33.138
47.8800 33.993
47.9000 34.156
47.9200 32.745
47.9400 33.771
47.9600 33.728
47.9800 33.926
48.0000 33.776
48.0200 33.019
48.0400 33.352
48.0600 33.809
48.0800 34.112
48.1000 33.833
48.1200 34.304
48.1400 34.026
48.1600 33.195
48.1800 34.270
48.2000 33.950
48.2200 34.601
48.2400 33.727
48.2600 33.941
48.2800 34.215
48.3000 33.828
48.3200 34.302
48.3400 33.955
48.3600 34.070
48.3800 33.906
48.4000 34.977
48.4200 34.735
48.4400 34.347
48.4600 34.863
48.4800 35.185
48.5000 34.044
48.5200 34.841
48.5400 34.446
48.5600 33.884
48.5800 33.532
48.6000 34.873
48.6200 34.488
48.6400 34.073
48.6600 34.460
48.6800 34.570
48.7000 34.514
48.7200 34.430
48.7400 34.412
48.7600 34.865
48.7800 34.738
48.8000 34.097
48.8200 34.733
48.8400 34.127
48.8600 34.344
48.8800 34.378
48.9000 34.227
48.9200 35.330
48.9400 34.307
48.9600 34.785
48.9800 34.387
49.0000 35.176
49.0200 34.376
49.0400 35.150
49.0600 34.011
49.0800 34.768
49.1000 34.777
49.1200 35.289
49.1400 34.955
49.1600 34.616
49.1800 35.070
49.2000 34.698
49.2200 35.150
49.2400 34.626
49.2600 34.795
49.2800 35.886
49.3000 34.735
49.3200 34.934
49.3400 34.981
49.3600 35.752
49.3800 35.705
49.4000 35.222
49.4200 34.927
49.4400 35.139
49.4600 35.313
49.4800 34.150
49.5000 34.475
49.5200 34.981
49.5400 34.082
49.5600 35.989
49.5800 34.905
49.6000 34.484
49.6200 35.776
49.6400 35.051
49.6600 35.409
49.6800 35.255
49.7000 34.711
49.7200 35.450
49.7400 35.683
49.7600 35.783
49.7800 35.209
49.8000 34.715
49.8200 34.992
49.8400 34.868
49.8600 34.882
49.8800 35.298
49.9000 34.864
49.9200 35.575
49.9400 34.605
49.9600 35.500
49.9800 35.335
50.0000 35.576
50.0200 35.970
50.0400 36.923
50.0600 36.395
50.0800 35.948
50.1000 35.992
50.1200 35.814
50.1400 35.653
50.1600 35.851
50.1800 35.729
50.2000 35.941
50.2200 35.078
50.2400 35.509
50.2600 35.538
50.2800 35.700
50.3000 36.345
50.3200 36.354
50.3400 36.687
50.3600 36.291
50.3800 36.084
50.4000 36.041
50.4200 35.976
50.4400 36.280
50.4600 36.001
50.4800 36.148
50.5000 36.641
50.5200 37.021
50.5400 36.522
50.5600 36.490
50.5800 36.600
50.6000 36.967
50.6200 35.390
50.6400 36.442
50.6600 37.346
50.6800 35.861
50.7000 36.881
50.7200 36.985
50.7400 36.496
50.7600 35.834
50.7800 36.797
50.8000 37.045
50.8200 35.845
50.8400 36.525
50.8600 35.838
50.8800 36.473
50.9000 36.250
50.9200 36.312
50.9400 36.228
50.9600 37.358
50.9800 36.376
51.0000 35.956
51.0200 36.597
51.0400 36.830
51.0600 36.541
51.0800 35.939
51.1000 36.647
51.1200 37.350
51.1400 36.862
51.1600 36.370
51.1800 36.344
51.2000 38.089
51.2200 37.072
51.2400 37.446
51.2600 37.922
51.2800 36.114
51.3000 37.141
51.3200 38.194
51.3400 37.434
51.3600 36.695
51.3800 36.791
51.4000 37.418
51.4200 37.494
51.4400 36.798
51.4600 37.191
51.4800 36.926
51.5000 37.434
51.5200 36.783
51.5400 36.256
51.5600 37.941
51.5800 37.046
51.6000 37.487
51.6200 37.162
51.6400 37.007
51.6600 36.776
51.6800 37.156
51.7000 36.905
51.7200 36.962
51.7400 36.471
51.7600 37.575
51.7800 37.219
51.8000 37.189
51.8200 37.995
51.8400 37.120
51.8600 36.829
51.8800 37.084
51.9000 36.829
51.9200 37.361
51.9400 37.379
51.9600 37.362
51.9800 37.272
52.0000 37.866
52.0200 37.616
52.0400 37.846
52.0600 37.949
52.0800 38.633
52.1000 36.821
52.1200 36.907
52.1400 36.704
52.1600 37.833
52.1800 37.989
52.2000 38.042
52.2200 37.282
52.2400 36.958
52.2600 36.489
52.2800 38.144
52.3000 36.934
52.3200 37.110
52.3400 37.549
52.3600 37.380
52.3800 37.283
52.4000 36.952
52.4200 37.548
52.4400 37.406
52.4600 38.300
52.4800 37.481
52.5000 38.674
52.5200 37.874
52.5400 37.492
52.5600 36.599
52.5800 37.648
52.6000 37.318
52.6200 37.941
52.6400 38.874
52.6600 37.769
52.6800 37.957
52.7000 37.614
52.7200 38.191
52.7400 38.516
52.7600 38.723
52.7800 37.270
52.8000 38.187
52.8200 38.227
52.8400 38.419
52.8600 39.070
52.8800 38.067
52.9000 38.102
52.9200 37.777
52.9400 38.066
52.9600 37.921
52.9800 37.525
53.0000 38.311
53.0200 38.345
53.0400 38.226
53.0600 38.253
53.0800 38.606
53.1000 37.551
53.1200 37.983
53.1400 37.435
53.1600 37.511
53.1800 38.114
53.2000 37.796
53.2200 38.125
53.2400 37.823
53.2600 38.244
53.2800 38.925
53.3000 38.544
53.3200 38.740
53.3400 38.363
53.3600 37.269
53.3800 37.885
53.4000 39.217
53.4200 38.312
53.4400 37.564
53.4600 38.054
53.4800 37.892
53.5000 37.680
53.5200 39.022
53.5400 38.306
53.5600 38.782
53.5800 38.252
53.6000 38.820
53.6200 38.791
53.6400 38.709
53.6600 38.684
53.6800 38.925
53.7000 39.615
53.7200 38.814
53.7400 38.160
53.7600 38.262
53.7800 39.130
53.8000 38.638
53.8200 37.646
53.8400 38.108
53.8600 39.418
53.8800 39.445
53.9000 39.041
53.9200 38.323
53.9400 38.613
53.9600 38.394
53.9800 39.230
54.0000 39.909
54.0200 39.695
54.0400 38.650
54.0600 38.654
54.0800 38.751
54.1000 38.931
54.1200 39.819
54.1400 39.069
54.1600 38.844
54.1800 38.561
54.2000 39.548
54.2200 39.592
54.2400 39.058
54.2600 38.780
54.2800 38.582
54.3000 39.643
54.3200 39.875
54.3400 38.785
54.3600 38.934
54.3800 39.018
54.4000 39.023
54.4200 38.497
54.4400 38.111
54.4600 39.186
54.4800 39.904
54.5000 39.049
54.5200 39.464
54.5400 39.358
54.5600 39.335
54.5800 39.404
54.6000 39.178
54.6200 38.736
54.6400 39.376
54.6600 38.588
54.6800 39.364
54.7000 38.839
54.7200 38.827
54.7400 39.645
54.7600 39.125
54.7800 39.367
54.8000 39.293
54.8200 39.313
54.8400 38.969
54.8600 38.773
54.8800 38.147
54.9000 39.370
54.9200 39.681
54.9400 39.282
54.9600 39.895
54.9800 39.962
55.0000 38.480
55.0200 39.291
55.0400 38.039
55.0600 39.571
55.0800 39.322
55.1000 39.251
55.1200 40.225
55.1400 39.783
55.1600 40.190
55.1800 39.307
55.2000 40.133
55.2200 40.267
55.2400 39.123
55.2600 39.652
55.2800 39.545
55.3000 39.330
55.3200 39.519
55.3400 40.040
55.3600 40.007
55.3800 39.906
55.4000 38.764
55.4200 40.094
55.4400 39.707
55.4600 39.597
55.4800 40.035
55.5000 39.847
55.5200 39.623
55.5400 39.438
55.5600 39.000
55.5800 39.735
55.6000 39.970
55.6200 40.192
55.6400 40.657
55.6600 38.932
55.6800 39.577
55.7000 39.357
55.7200 39.605
55.7400 40.978
55.7600 39.827
55.7800 39.936
55.8000 40.011
55.8200 40.375
55.8400 39.986
55.8600 40.512
55.8800 41.394
55.9000 39.982
55.9200 40.149
55.9400 39.958
55.9600 40.543
55.9800 39.987
56.0000 40.215
56.0200 40.281
56.0400 39.951
56.0600 39.780
56.0800 39.859
56.1000 40.809
56.1200 40.731
56.1400 39.479
56.1600 39.977
56.1800 40.279
56.2000 41.054
56.2200 41.565
56.2400 40.477
56.2600 40.958
56.2800 39.997
56.3000 40.100
56.3200 41.703
56.3400 40.925
56.3600 41.857
56.3800 40.988
56.4000 41.378
56.4200 41.808
56.4400 41.088
56.4600 41.092
56.4800 41.344
56.5000 41.696
56.5200 41.119
56.5400 40.651
56.5600 40.408
56.5800 40.726
56.6000 40.971
56.6200 39.867
56.6400 41.363
56.6600 40.853
56.6800 42.124
56.7000 41.229
56.7200 41.666
56.7400 41.161
56.7600 40.578
56.7800 40.131
56.8000 42.033
56.8200 41.464
56.8400 40.163
56.8600 40.632
56.8800 42.297
56.9000 41.557
56.9200 40.651
56.9400 40.272
56.9600 41.036
56.9800 40.826
57.0000 41.334
57.0200 40.202
57.0400 40.994
57.0600 41.211
57.0800 41.220
57.1000 40.694
57.1200 41.024
57.1400 42.131
57.1600 42.521
57.1800 41.612
57.2000 41.716
57.2200 41.213
57.2400 40.982
57.2600 41.707
57.2800 42.243
57.3000 41.549
57.3200 41.545
57.3400 41.469
57.3600 41.919
57.3800 41.658
57.4000 43.397
57.4200 42.056
57.4400 42.387
57.4600 41.661
57.4800 42.590
57.5000 42.655
57.5200 41.901
57.5400 41.884
57.5600 42.398
57.5800 41.795
57.6000 42.454
57.6200 42.037
57.6400 42.378
57.6600 41.827
57.6800 41.996
57.7000 42.269
57.7200 41.820
57.7400 42.556
57.7600 42.057
57.7800 42.557
57.8000 43.285
57.8200 42.851
57.8400 42.325
57.8600 42.745
57.8800 43.079
57.9000 42.413
57.9200 42.590
57.9400 42.442
57.9600 42.555
57.9800 42.901
58.0000 42.173
58.0200 43.877
58.0400 43.884
58.0600 43.627
58.0800 44.663
58.1000 44.256
58.1200 44.105
58.1400 44.983
58.1600 44.936
58.1800 45.009
58.2000 45.527
58.2200 46.111
58.2400 46.296
58.2600 46.116
58.2800 47.077
58.3000 47.416
58.3200 47.677
58.3400 49.375
58.3600 48.961
58.3800 48.614
58.4000 48.193
58.4200 48.726
58.4400 49.579
58.4600 49.881
58.4800 49.639
58.5000 49.750
58.5200 50.386
58.5400 50.340
58.5600 50.886
58.5800 49.777
58.6000 49.454
58.6200 50.884
58.6400 50.028
58.6600 50.561
58.6800 51.733
58.7000 49.998
58.7200 50.725
58.7400 50.959
58.7600 51.151
58.7800 50.684
58.8000 51.668
58.8200 51.359
58.8400 50.784
58.8600 50.136
58.8800 50.745
58.9000 50.764
58.9200 49.663
58.9400 49.021
58.9600 48.355
58.9800 48.223
59.0000 47.606
59.0200 46.993
59.0400 47.425
59.0600 46.565
59.0800 46.897
59.1000 45.687
59.1200 46.456
59.1400 46.073
59.1600 45.340
59.1800 44.440
59.2000 44.326
59.2200 44.893
59.2400 45.288
59.2600 44.577
59.2800 44.494
59.3000 44.010
59.3200 44.085
59.3400 43.520
59.3600 42.770
59.3800 43.516
59.4000 43.558
59.4200 43.759
59.4400 43.621
59.4600 42.298
59.4800 43.129
59.5000 43.146
59.5200 43.593
59.5400 43.417
59.5600 44.299
59.5800 43.787
59.6000 44.030
59.6200 42.769
59.6400 43.092
59.6600 43.695
59.6800 43.033
59.7000 42.941
59.7200 43.407
59.7400 44.188
59.7600 43.867
59.7800 43.748
59.8000 43.542
59.8200 43.214
59.8400 43.280
59.8600 43.464
59.8800 43.673
59.9000 43.698
59.9200 43.486
59.9400 43.475
59.9600 43.224
59.9800 42.825
60.0000 42.593
60.0200 42.653
60.0400 43.313
60.0600 43.030
60.0800 43.757
60.1000 43.461
60.1200 43.279
60.1400 43.188
60.1600 42.531
60.1800 42.980
60.2000 43.423
60.2200 43.552
60.2400 42.596
60.2600 43.183
60.2800 44.162
60.3000 43.252
60.3200 43.328
60.3400 43.490
60.3600 43.682
60.3800 43.837
60.4000 44.349
60.4200 44.106
60.4400 43.904
60.4600 45.426
60.4800 44.596
60.5000 42.894
60.5200 43.046
60.5400 44.249
60.5600 43.057
60.5800 42.816
60.6000 43.966
60.6200 43.699
60.6400 44.435
60.6600 43.882
60.6800 43.995
60.7000 44.358
60.7200 44.370
60.7400 44.098
60.7600 44.380
60.7800 44.386
60.8000 43.823
60.8200 43.709
60.8400 43.404
60.8600 44.251
60.8800 44.160
60.9000 43.310
60.9200 44.137
60.9400 44.087
60.9600 43.932
60.9800 44.669
61.0000 44.200
61.0200 44.290
61.0400 43.500
61.0600 43.527
61.0800 43.908
61.1000 44.299
61.1200 42.862
61.1400 42.479
61.1600 44.750
61.1800 45.327
61.2000 44.357
61.2200 45.162
61.2400 44.733
61.2600 43.059
61.2800 44.510
61.3000 44.594
61.3200 43.169
61.3400 44.410
61.3600 44.088
61.3800 44.699
61.4000 44.711
61.4200 43.350
61.4400 43.546
61.4600 45.088
61.4800 44.590
61.5000 44.410
61.5200 45.834
61.5400 44.426
61.5600 44.001
61.5800 44.881
61.6000 44.323
61.6200 45.251
61.6400 44.401
61.6600 43.524
61.6800 44.737
61.7000 44.817
61.7200 44.888
61.7400 45.575
61.7600 44.519
61.7800 45.473
61.8000 45.613
61.8200 45.070
61.8400 46.687
61.8600 45.921
61.8800 45.481
61.9000 45.197
61.9200 44.969
61.9400 46.074
61.9600 45.767
61.9800 45.585
62.0000 45.452
62.0200 46.592
62.0400 45.777
62.0600 45.390
62.0800 45.042
62.1000 45.196
62.1200 44.941
62.1400 46.063
62.1600 46.203
62.1800 45.039
62.2000 44.031
62.2200 44.628
62.2400 45.466
62.2600 44.990
62.2800 45.102
62.3000 44.903
62.3200 43.986
62.3400 45.445
62.3600 45.817
62.3800 44.651
62.4000 44.654
62.4200 45.029
62.4400 44.243
62.4600 45.478
62.4800 44.821
62.5000 44.849
62.5200 44.858
62.5400 44.662
62.5600 45.403
62.5800 45.502
62.6000 44.376
62.6200 44.973
62.6400 44.850
62.6600 44.861
62.6800 45.283
62.7000 44.111
62.7200 45.733
62.7400 44.416
62.7600 44.525
62.7800 45.031
62.8000 44.772
62.8200 44.981
62.8400 44.371
62.8600 45.980
62.8800 45.765
62.9000 44.759
62.9200 45.000
62.9400 45.479
62.9600 45.889
62.9800 45.111
63.0000 44.850
63.0200 46.240
63.0400 45.390
63.0600 44.346
63.0800 46.000
63.1000 44.471
63.1200 45.336
63.1400 45.190
63.1600 45.538
63.1800 45.242
63.2000 46.259
63.2200 45.320
63.2400 45.287
63.2600 45.625
63.2800 45.843
63.3000 45.908
63.3200 45.798
63.3400 45.502
63.3600 45.158
63.3800 45.870
63.4000 45.487
63.4200 45.928
63.4400 46.284
63.4600 46.710
63.4800 44.405
63.5000 45.787
63.5200 46.169
63.5400 45.829
63.5600 45.245
63.5800 46.042
63.6000 45.722
63.6200 45.591
63.6400 45.855
63.6600 46.559
63.6800 46.106
63.7000 45.399
63.7200 45.736
63.7400 45.879
63.7600 46.170
63.7800 46.518
63.8000 45.955
63.8200 45.798
63.8400 46.665
63.8600 46.331
63.8800 46.480
63.9000 45.908
63.9200 46.550
63.9400 47.438
63.9600 47.082
63.9800 46.631
64.0000 45.797
64.0200 45.797
64.0400 46.103
64.0600 47.447
64.0800 47.423
64.1000 48.420
64.1200 46.951
64.1400 49.732
64.1600 49.845
64.1800 48.489
64.2000 49.937
64.2200 51.083
64.2400 52.195
64.2600 52.782
64.2800 54.476
64.3000 53.706
64.3200 55.474
64.3400 55.196
64.3600 55.932
64.3800 55.585
64.4000 56.244
64.4200 55.850
64.4400 54.318
64.4600 55.715
64.4800 54.577
64.5000 53.811
64.5200 52.792
64.5400 52.519
64.5600 52.349
64.5800 51.169
64.6000 51.963
64.6200 49.828
64.6400 50.061
64.6600 50.277
64.6800 49.253
64.7000 48.325
64.7200 47.691
64.7400 47.295
64.7600 47.212
64.7800 47.556
64.8000 47.750
64.8200 47.624
64.8400 47.050
64.8600 47.071
64.8800 47.171
64.9000 47.008
64.9200 46.256
64.9400 47.346
64.9600 47.505
64.9800 46.502
65.0000 46.923
65.0200 45.589
65.0400 46.339
65.0600 46.373
65.0800 46.939
65.1000 47.236
65.1200 46.716
65.1400 46.384
65.1600 46.885
65.1800 47.456
65.2000 47.777
65.2200 47.057
65.2400 46.942
65.2600 47.039
65.2800 46.222
65.3000 46.118
65.3200 46.258
65.3400 47.487
65.3600 46.279
65.3800 47.001
65.4000 47.816
65.4200 47.444
65.4400 47.424
65.4600 47.108
65.4800 46.753
65.5000 46.219
65.5200 46.565
65.5400 46.910
65.5600 46.251
65.5800 46.709
65.6000 47.762
65.6200 46.978
65.6400 47.109
65.6600 46.592
65.6800 46.989
65.7000 47.581
65.7200 46.661
65.7400 47.597
65.7600 47.650
65.7800 47.429
65.8000 47.991
65.8200 46.783
65.8400 46.169
65.8600 47.261
65.8800 47.491
65.9000 47.878
65.9200 47.577
65.9400 47.555
65.9600 47.503
65.9800 48.050
66.0000 47.860
66.0200 47.984
66.0400 47.948
66.0600 48.019
66.0800 46.592
66.1000 46.118
66.1200 47.898
66.1400 47.224
66.1600 48.098
66.1800 47.723
66.2000 47.479
66.2200 47.795
66.2400 47.861
66.2600 47.126
66.2800 47.682
66.3000 48.327
66.3200 47.178
66.3400 47.217
66.3600 47.437
66.3800 47.448
66.4000 47.874
66.4200 48.268
66.4400 48.184
66.4600 48.543
66.4800 48.372
66.5000 48.058
66.5200 48.181
66.5400 48.254
66.5600 47.162
66.5800 47.677
66.6000 48.271
66.6200 48.983
66.6400 48.102
66.6600 47.431
66.6800 48.824
66.7000 47.804
66.7200 48.133
66.7400 48.486
66.7600 47.551
66.7800 47.031
66.8000 48.307
66.8200 48.556
66.8400 47.998
66.8600 48.366
66.8800 48.277
66.9000 48.218
66.9200 47.981
66.9400 48.356
66.9600 49.582
66.9800 48.095
67.0000 48.553
67.0200 47.920
67.0400 48.641
67.0600 48.066
67.0800 49.286
67.1000 48.152
67.1200 48.273
67.1400 49.140
67.1600 47.785
67.1800 49.392
67.2000 49.751
67.2200 49.502
67.2400 48.372
67.2600 48.021
67.2800 48.668
67.3000 49.491
67.3200 49.460
67.3400 48.490
67.3600 49.312
67.3800 50.036
67.4000 49.621
67.4200 50.363
67.4400 49.299
67.4600 50.288
67.4800 50.011
67.5000 50.568
67.5200 50.478
67.5400 49.574
67.5600 49.854
67.5800 50.325
67.6000 49.753
67.6200 49.639
67.6400 49.962
67.6600 49.830
67.6800 49.847
67.7000 49.884
67.7200 49.382
67.7400 49.632
67.7600 50.595
67.7800 49.797
67.8000 50.082
67.8200 48.767
67.8400 50.030
67.8600 49.441
67.8800 49.777
67.9000 48.908
67.9200 48.755
67.9400 49.743
67.9600 49.599
67.9800 48.375
68.0000 49.618
68.0200 49.809
68.0400 47.741
68.0600 49.076
68.0800 50.296
68.1000 49.353
68.1200 48.657
68.1400 48.523
68.1600 49.225
68.1800 49.391
68.2000 48.940
68.2200 48.778
68.2400 49.146
68.2600 48.367
68.2800 49.288
68.3000 48.638
68.3200 48.593
68.3400 48.807
68.3600 48.964
68.3800 48.635
68.4000 48.907
68.4200 47.841
68.4400 49.053
68.4600 49.242
68.4800 49.596
68.5000 49.995
68.5200 48.186
68.5400 49.066
68.5600 48.579
68.5800 48.714
68.6000 49.064
68.6200 48.209
68.6400 48.474
68.6600 49.763
68.6800 49.412
68.7000 48.570
68.7200 49.878
68.7400 49.676
68.7600 48.614
68.7800 48.170
68.8000 49.252
68.8200 48.775
68.8400 48.811
68.8600 49.304
68.8800 49.135
68.9000 49.491
68.9200 49.571
68.9400 48.713
68.9600 48.994
68.9800 48.688
69.0000 49.379
69.0200 49.249
69.0400 49.612
69.0600 49.297
69.0800 48.491
69.1000 48.541
69.1200 48.924
69.1400 49.859
69.1600 49.450
69.1800 49.460
69.2000 50.057
69.2200 50.646
69.2400 49.842
69.2600 49.527
69.2800 49.484
69.3000 49.581
69.3200 49.140
69.3400 49.287
69.3600 50.338
69.3800 50.115
69.4000 50.002
69.4200 49.154
69.4400 49.753
69.4600 49.868
69.4800 49.649
69.5000 49.560
69.5200 49.813
69.5400 48.842
69.5600 48.578
69.5800 50.154
69.6000 50.473
69.6200 50.384
69.6400 49.851
69.6600 49.381
69.6800 49.989
69.7000 49.251
69.7200 49.247
69.7400 49.567
69.7600 49.284
69.7800 51.325
69.8000 51.197
69.8200 50.124
69.8400 50.672
69.8600 50.314
69.8800 49.563
69.9000 49.957
69.9200 49.555
69.9400 50.239
69.9600 50.969
69.9800 50.755
70.0000 50.006
70.0200 50.326
70.0400 50.005
70.0600 50.609
70.0800 50.492
70.1000 50.197
70.1200 48.850
70.1400 49.687
70.1600 50.367
70.1800 49.526
70.2000 49.978
70.2200 49.602
70.2400 50.193
70.2600 50.991
70.2800 51.157
70.3000 49.781
70.3200 50.141
70.3400 50.315
70.3600 50.973
70.3800 51.685
70.4000 50.852
70.4200 49.627
70.4400 50.103
70.4600 50.206
70.4800 50.614
70.5000 50.227
70.5200 50.204
70.5400 50.248
70.5600 50.313
70.5800 49.884
70.6000 49.571
70.6200 49.429
70.6400 51.105
70.6600 49.939
70.6800 49.727
70.7000 50.397
70.7200 50.541
70.7400 50.567
70.7600 50.396
70.7800 50.929
70.8000 50.453
70.8200 49.590
70.8400 50.592
70.8600 50.769
70.8800 50.676
70.9000 51.437
70.9200 49.994
70.9400 51.316
70.9600 51.274
70.9800 50.574
71.0000 51.211
71.0200 51.960
71.0400 51.139
71.0600 50.754
71.0800 50.361
71.1000 50.673
71.1200 50.897
71.1400 51.848
71.1600 50.954
71.1800 51.286
71.2000 51.469
71.2200 51.359
71.2400 51.553
71.2600 51.158
71.2800 50.311
71.3000 50.351
71.3200 51.610
71.3400 50.826
71.3600 51.769
71.3800 50.399
71.4000 50.570
71.4200 50.950
71.4400 50.738
71.4600 51.188
71.4800 51.808
71.5000 50.900
71.5200 51.271
71.5400 52.003
71.5600 51.289
71.5800 51.170
71.6000 52.050
71.6200 51.118
71.6400 51.707
71.6600 52.692
71.6800 51.843
71.7000 51.162
71.7200 51.574
71.7400 51.752
71.7600 52.070
71.7800 51.519
71.8000 51.407
71.8200 52.796
71.8400 52.349
71.8600 51.841
71.8800 52.062
71.9000 50.739
71.9200 50.605
71.9400 51.461
71.9600 51.795
71.9800 52.046
72.0000 51.031
72.0200 51.352
72.0400 51.627
72.0600 50.887
72.0800 50.936
72.1000 52.491
72.1200 52.898
72.1400 52.910
72.1600 51.179
72.1800 52.697
72.2000 51.642
72.2200 51.707
72.2400 51.173
72.2600 51.360
72.2800 50.935
72.3000 52.045
72.3200 52.135
72.3400 53.409
72.3600 52.908
72.3800 52.409
72.4000 52.884
72.4200 51.561
72.4400 51.823
72.4600 51.939
72.4800 51.978
72.5000 51.692
72.5200 53.060
72.5400 52.068
72.5600 51.802
72.5800 51.856
72.6000 51.801
72.6200 53.196
72.6400 52.392
72.6600 52.878
72.6800 52.386
72.7000 52.598
72.7200 51.207
72.7400 51.974
72.7600 52.932
72.7800 52.981
72.8000 53.026
72.8200 52.744
72.8400 52.106
72.8600 52.834
72.8800 52.915
72.9000 52.561
72.9200 52.121
72.9400 52.264
72.9600 51.884
72.9800 51.490
73.0000 53.352
73.0200 52.853
73.0400 53.261
73.0600 52.617
73.0800 53.113
73.1000 53.063
73.1200 53.096
73.1400 52.249
73.1600 52.798
73.1800 52.992
73.2000 53.024
73.2200 52.813
73.2400 53.371
73.2600 54.166
73.2800 52.763
73.3000 53.178
73.3200 52.795
73.3400 52.747
73.3600 53.057
73.3800 52.239
73.4000 53.569
73.4200 53.427
73.4400 52.441
73.4600 52.293
73.4800 53.197
73.5000 53.412
73.5200 52.261
73.5400 52.596
73.5600 52.995
73.5800 53.025
73.6000 52.812
73.6200 53.398
73.6400 53.256
73.6600 52.224
73.6800 53.772
73.7000 52.759
73.7200 53.691
73.7400 52.771
73.7600 52.922
73.7800 52.965
73.8000 51.550
73.8200 52.480
73.8400 52.683
73.8600 52.269
73.8800 53.580
73.9000 53.097
73.9200 53.383
73.9400 52.976
73.9600 53.361
73.9800 53.390
74.0000 52.363
74.0200 52.685
74.0400 52.291
74.0600 53.514
74.0800 54.393
74.1000 54.210
74.1200 54.248
74.1400 53.054
74.1600 53.188
74.1800 52.208
74.2000 52.804
74.2200 52.905
74.2400 54.158
74.2600 54.576
74.2800 54.904
74.3000 53.676
74.3200 52.718
74.3400 53.358
74.3600 53.754
74.3800 54.861
74.4000 54.410
74.4200 53.326
74.4400 53.593
74.4600 54.401
74.4800 54.658
74.5000 53.359
74.5200 55.320
74.5400 54.163
74.5600 52.821
74.5800 53.316
74.6000 54.573
74.6200 54.729
74.6400 54.182
74.6600 53.592
74.6800 53.176
74.7000 54.352
74.7200 55.324
74.7400 53.669
74.7600 54.502
74.7800 54.373
74.8000 54.739
74.8200 54.155
74.8400 53.102
74.8600 53.410
74.8800 54.255
74.9000 53.974
74.9200 52.587
74.9400 54.160
74.9600 53.864
74.9800 53.837
75.0000 53.673
75.0200 55.714
75.0400 53.477
75.0600 54.485
75.0800 54.916
75.1000 53.992
75.1200 53.746
75.1400 53.329
75.1600 54.540
75.1800 54.313
75.2000 54.061
75.2200 54.897
75.2400 55.740
75.2600 54.904
75.2800 54.821
75.3000 54.602
75.3200 53.740
75.3400 54.743
75.3600 54.504
75.3800 54.545
75.4000 54.512
75.4200 53.685
75.4400 54.285
75.4600 54.459
75.4800 54.045
75.5000 54.330
75.5200 54.002
75.5400 55.144
75.5600 55.165
75.5800 55.642
75.6000 54.356
75.6200 55.016
75.6400 54.986
75.6600 54.562
75.6800 54.857
75.7000 54.462
75.7200 54.403
75.7400 54.760
75.7600 55.430
75.7800 55.892
75.8000 54.455
75.8200 54.650
75.8400 55.158
75.8600 55.095
75.8800 55.117
75.9000 56.195
75.9200 56.147
75.9400 55.664
75.9600 55.103
75.9800 55.630
76.0000 55.905
76.0200 55.271
76.0400 54.390
76.0600 54.965
76.0800 55.859
76.1000 54.870
76.1200 56.631
76.1400 56.456
76.1600 55.221
76.1800 55.778
76.2000 54.136
76.2200 55.387
76.2400 55.261
76.2600 54.847
76.2800 54.740
76.3000 56.265
76.3200 55.632
76.3400 54.713
76.3600 56.091
76.3800 55.570
76.4000 55.776
76.4200 56.101
76.4400 55.831
76.4600 55.130
76.4800 56.581
76.5000 55.574
76.5200 55.112
76.5400 56.473
76.5600 55.861
76.5800 55.086
76.6000 55.555
76.6200 56.309
76.6400 56.640
76.6600 56.066
76.6800 55.123
76.7000 53.952
76.7200 56.467
76.7400 55.722
76.7600 56.484
76.7800 55.160
76.8000 55.490
76.8200 56.375
76.8400 56.432
76.8600 55.310
76.8800 56.328
76.9000 55.690
76.9200 55.896
76.9400 55.998
76.9600 55.780
76.9800 55.009
77.0000 55.509
77.0200 56.090
77.0400 55.812
77.0600 57.208
77.0800 56.555
77.1000 55.374
77.1200 56.524
77.1400 56.107
77.1600 56.078
77.1800 55.595
77.2000 55.634
77.2200 56.216
77.2400 55.610
77.2600 55.954
77.2800 56.073
77.3000 55.589
77.3200 55.465
77.3400 55.348
77.3600 56.857
77.3800 56.471
77.4000 57.526
77.4200 56.219
77.4400 55.322
77.4600 56.194
77.4800 57.611
77.5000 56.005
77.5200 57.561
77.5400 57.200
77.5600 56.104
77.5800 55.727
77.6000 56.802
77.6200 56.912
77.6400 56.781
77.6600 55.838
77.6800 56.466
77.7000 56.755
77.7200 56.319
77.7400 56.597
77.7600 56.729
77.7800 56.113
77.8000 57.232
77.8200 56.021
77.8400 56.091
77.8600 56.241
77.8800 57.456
77.9000 57.375
77.9200 56.406
77.9400 57.831
77.9600 56.804
77.9800 55.916
78.0000 56.733
78.0200 57.924
78.0400 57.596
78.0600 56.920
78.0800 56.467
78.1000 57.582
78.1200 56.372
78.1400 58.956
78.1600 58.279
78.1800 57.070
78.2000 57.744
78.2200 56.748
78.2400 56.488
78.2600 57.760
78.2800 58.325
78.3000 58.312
78.3200 56.728
78.3400 56.623
78.3600 57.735
78.3800 57.948
78.4000 58.336
78.4200 57.443
78.4400 57.061
78.4600 57.398
78.4800 58.372
78.5000 57.186
78.5200 58.789
78.5400 58.070
78.5600 58.750
78.5800 58.257
78.6000 56.705
78.6200 57.653
78.6400 57.684
78.6600 57.954
78.6800 58.217
78.7000 58.369
78.7200 58.710
78.7400 58.081
78.7600 58.071
78.7800 57.718
78.8000 57.276
78.8200 57.037
78.8400 58.306
78.8600 57.697
78.8800 57.376
78.9000 58.362
78.9200 58.855
78.9400 57.975
78.9600 57.355
78.9800 58.536
79.0000 58.027
79.0200 56.979
79.0400 58.126
79.0600 58.727
79.0800 58.639
79.1000 57.830
79.1200 57.743
79.1400 58.159
79.1600 58.479
79.1800 57.341
79.2000 57.663
79.2200 57.845
79.2400 57.473
79.2600 57.621
79.2800 58.428
79.3000 58.423
79.3200 58.183
79.3400 57.957
79.3600 58.559
79.3800 58.493
79.4000 58.168
79.4200 57.622
79.4400 59.181
79.4600 58.568
79.4800 58.400
79.5000 58.265
79.5200 58.454
79.5400 58.546
79.5600 57.763
79.5800 57.680
79.6000 57.707
79.6200 59.337
79.6400 59.022
79.6600 59.316
79.6800 58.946
79.7000 58.635
79.7200 58.451
79.7400 58.510
79.7600 58.543
79.7800 58.276
79.8000 59.951
79.8200 58.701
79.8400 58.738
79.8600 58.612
79.8800 58.845
79.9000 58.221
79.9200 58.666
79.9400 58.881
79.9600 58.763
79.9800 59.484
80.0000 59.426
