'Id: "" Comment: "" Operator: "Lab Manager" Anode: "Cu" Scantype: "Coupled TwoTheta/Theta" TimePerStep: "113.4653" X: "9999" Y: "9999" Z: "-2.700037" 
20.0000 8.291
20.0200 8.272
20.0400 7.705
20.0600 7.684
20.0800 8.060
20.1000 8.448
20.1200 8.114
20.1400 8.191
20.1600 8.431
20.1800 8.355
20.2000 8.584
20.2200 8.556
20.2400 8.421
20.2600 8.307
20.2800 8.353
20.3000 8.099
20.3200 8.123
20.3400 8.629
20.3600 8.266
20.3800 8.518
20.4000 8.648
20.4200 8.276
20.4400 8.433
20.4600 8.110
20.4800 8.601
20.5000 8.710
20.5200 8.638
20.5400 8.573
20.5600 8.714
20.5800 8.604
20.6000 8.368
20.6200 8.539
20.6400 8.719
20.6600 8.992
20.6800 8.540
20.7000 8.900
20.7200 8.127
20.7400 8.918
20.7600 8.796
20.7800 8.852
20.8000 8.745
20.8200 8.768
20.8400 8.565
20.8600 8.592
20.8800 8.560
20.9000 8.674
20.9200 8.393
20.9400 8.764
20.9600 8.549
20.9800 8.862
21.0000 8.794
21.0200 8.760
21.0400 9.236
21.0600 8.997
21.0800 8.889
21.1000 8.583
21.1200 8.700
21.1400 8.817
21.1600 9.217
21.1800 8.907
21.2000 9.192
21.2200 8.590
21.2400 9.166
21.2600 9.084
21.2800 9.171
21.3000 8.926
21.3200 9.173
21.3400 8.861
21.3600 9.166
21.3800 9.373
21.4000 8.834
21.4200 8.994
21.4400 9.525
21.4600 9.223
21.4800 8.926
21.5000 9.108
21.5200 9.439
21.5400 9.187
21.5600 9.301
21.5800 9.558
21.6000 9.037
21.6200 9.134
21.6400 9.153
21.6600 9.439
21.6800 9.097
21.7000 9.354
21.7200 9.391
21.7400 8.917
21.7600 8.998
21.7800 9.162
21.8000 9.518
21.8200 9.574
21.8400 9.313
21.8600 9.499
21.8800 9.318
21.9000 9.613
21.9200 9.519
21.9400 9.380
21.9600 9.230
21.9800 9.512
22.0000 9.381
22.0200 9.434
22.0400 9.540
22.0600 9.820
22.0800 9.438
22.1000 9.324
22.1200 9.808
22.1400 9.312
22.1600 9.297
22.1800 9.701
22.2000 9.425
22.2200 9.613
22.2400 9.632
22.2600 9.727
22.2800 9.603
22.3000 9.328
22.3200 9.959
22.3400 9.433
22.3600 9.547
22.3800 9.140
22.4000 9.783
22.4200 9.284
22.4400 9.308
22.4600 9.664
22.4800 9.641
22.5000 9.566
22.5200 9.863
22.5400 9.708
22.5600 9.879
22.5800 9.914
22.6000 9.902
22.6200 9.486
22.6400 9.218
22.6600 9.692
22.6800 10.573
22.7000 9.738
22.7200 10.192
22.7400 9.605
22.7600 9.393
22.7800 9.860
22.8000 10.717
22.8200 10.010
22.8400 10.334
22.8600 10.094
22.8800 10.428
22.9000 9.983
22.9200 9.921
22.9400 9.642
22.9600 10.225
22.9800 10.035
23.0000 10.072
23.0200 10.592
23.0400 10.152
23.0600 10.022
23.0800 9.635
23.1000 10.164
23.1200 10.252
23.1400 9.971
23.1600 10.634
23.1800 10.257
23.2000 10.156
23.2200 9.793
23.2400 9.701
23.2600 10.408
23.2800 10.139
23.3000 10.175
23.3200 9.787
23.3400 10.150
23.3600 10.139
23.3800 10.213
23.4000 10.379
23.4200 10.485
23.4400 10.592
23.4600 10.927
23.4800 10.338
23.5000 10.517
23.5200 11.059
23.5400 10.914
23.5600 10.526
23.5800 10.163
23.6000 10.133
23.6200 10.467
23.6400 10.468
23.6600 11.003
23.6800 10.783
23.7000 10.920
23.7200 10.508
23.7400 10.824
23.7600 10.810
23.7800 10.655
23.8000 10.895
23.8200 11.161
23.8400 10.557
23.8600 10.159
23.8800 10.254
23.9000 10.341
23.9200 10.413
23.9400 10.946
23.9600 10.888
23.9800 10.861
24.0000 10.794
24.0200 10.978
24.0400 10.861
24.0600 10.955
24.0800 10.770
24.1000 10.795
24.1200 10.857
24.1400 10.789
24.1600 11.358
24.1800 10.828
24.2000 10.917
24.2200 11.033
24.2400 10.998
24.2600 10.970
24.2800 11.415
24.3000 10.957
24.3200 10.863
24.3400 10.947
24.3600 10.872
24.3800 11.335
24.4000 10.815
24.4200 11.022
24.4400 11.207
24.4600 11.399
24.4800 11.334
24.5000 11.239
24.5200 11.115
24.5400 11.500
24.5600 11.157
24.5800 10.729
24.6000 11.158
24.6200 10.690
24.6400 11.380
24.6600 11.267
24.6800 11.421
24.7000 11.421
24.7200 11.382
24.7400 11.909
24.7600 11.716
24.7800 11.560
24.8000 11.019
24.8200 11.467
24.8400 10.899
24.8600 11.272
24.8800 11.493
24.9000 11.173
24.9200 11.297
24.9400 11.557
24.9600 11.349
24.9800 10.898
25.0000 11.477
25.0200 11.670
25.0400 11.005
25.0600 11.475
25.0800 11.612
25.1000 11.633
25.1200 12.021
25.1400 11.700
25.1600 11.504
25.1800 11.633
25.2000 12.285
25.2200 11.761
25.2400 11.674
25.2600 12.197
25.2800 11.891
25.3000 11.903
25.3200 11.598
25.3400 11.789
25.3600 12.089
25.3800 12.032
25.4000 11.502
25.4200 12.016
25.4400 12.215
25.4600 11.973
25.4800 12.273
25.5000 11.970
25.5200 11.805
25.5400 11.740
25.5600 11.578
25.5800 11.878
25.6000 12.234
25.6200 12.225
25.6400 12.174
25.6600 11.658
25.6800 11.888
25.7000 11.878
25.7200 12.058
25.7400 12.407
25.7600 12.494
25.7800 12.111
25.8000 12.154
25.8200 12.445
25.8400 11.992
25.8600 12.615
25.8800 12.671
25.9000 12.329
25.9200 12.471
25.9400 12.112
25.9600 12.045
25.9800 12.356
26.0000 12.150
26.0200 12.171
26.0400 12.324
26.0600 12.367
26.0800 12.340
26.1000 12.031
26.1200 12.149
26.1400 12.382
26.1600 12.233
26.1800 12.458
26.2000 12.646
26.2200 12.549
26.2400 12.572
26.2600 12.865
26.2800 12.527
26.3000 12.861
26.3200 12.866
26.3400 12.725
26.3600 12.905
26.3800 13.199
26.4000 12.592
26.4200 12.908
26.4400 12.301
26.4600 12.622
26.4800 12.980
26.5000 12.677
26.5200 12.942
26.5400 13.530
26.5600 12.613
26.5800 12.647
26.6000 12.837
26.6200 12.527
26.6400 12.603
26.6600 13.269
26.6800 12.889
26.7000 13.097
26.7200 13.149
26.7400 13.017
26.7600 12.799
26.7800 12.920
26.8000 13.006
26.8200 12.530
26.8400 12.634
26.8600 13.258
26.8800 14.020
26.9000 13.609
26.9200 13.822
26.9400 13.682
26.9600 13.063
26.9800 12.876
27.0000 12.901
27.0200 12.904
27.0400 13.421
27.0600 13.542
27.0800 13.392
27.1000 12.602
27.1200 13.045
27.1400 13.841
27.1600 13.350
27.1800 13.367
27.2000 13.499
27.2200 13.912
27.2400 13.901
27.2600 13.299
27.2800 13.207
27.3000 13.257
27.3200 13.149
27.3400 13.407
27.3600 12.909
27.3800 13.423
27.4000 12.904
27.4200 13.617
27.4400 13.219
27.4600 13.548
27.4800 13.454
27.5000 13.706
27.5200 13.878
27.5400 13.634
27.5600 13.621
27.5800 14.152
27.6000 13.973
27.6200 14.149
27.6400 13.576
27.6600 14.049
27.6800 13.772
27.7000 13.042
27.7200 13.481
27.7400 13.508
27.7600 13.826
27.7800 13.928
27.8000 14.284
27.8200 14.391
27.8400 14.362
27.8600 14.167
27.8800 14.476
27.9000 14.055
27.9200 13.417
27.9400 13.900
27.9600 14.153
27.9800 13.806
28.0000 14.006
28.0200 13.663
28.0400 13.895
28.0600 14.057
28.0800 13.802
28.1000 14.052
28.1200 13.780
28.1400 13.870
28.1600 14.336
28.1800 15.063
28.2000 14.013
28.2200 13.853
28.2400 14.399
28.2600 14.520
28.2800 14.693
28.3000 14.023
28.3200 14.048
28.3400 14.158
28.3600 14.563
28.3800 14.505
28.4000 13.998
28.4200 14.420
28.4400 14.092
28.4600 14.331
28.4800 14.791
28.5000 14.398
28.5200 14.456
28.5400 14.967
28.5600 14.970
28.5800 14.900
28.6000 15.019
28.6200 15.324
28.6400 14.870
28.6600 14.665
28.6800 14.735
28.7000 14.953
28.7200 14.972
28.7400 14.280
28.7600 14.774
28.7800 15.093
28.8000 14.715
28.8200 15.022
28.8400 15.166
28.8600 15.010
28.8800 14.677
28.9000 14.348
28.9200 15.227
28.9400 15.415
28.9600 15.056
28.9800 14.958
29.0000 15.022
29.0200 14.938
29.0400 14.577
29.0600 15.164
29.0800 15.315
29.1000 15.449
29.1200 15.361
29.1400 14.928
29.1600 14.759
29.1800 14.534
29.2000 15.120
29.2200 14.890
29.2400 15.243
29.2600 15.582
29.2800 15.745
29.3000 14.945
29.3200 15.122
29.3400 15.921
29.3600 15.215
29.3800 15.432
29.4000 15.058
29.4200 15.183
29.4400 15.667
29.4600 15.609
29.4800 16.056
29.5000 15.834
29.5200 15.600
29.5400 15.386
29.5600 15.317
29.5800 15.618
29.6000 15.575
29.6200 15.806
29.6400 16.374
29.6600 16.071
29.6800 16.334
29.7000 15.817
29.7200 16.087
29.7400 16.384
29.7600 15.894
29.7800 15.978
29.8000 15.805
29.8200 16.120
29.8400 15.828
29.8600 15.635
29.8800 15.927
29.9000 15.729
29.9200 16.132
29.9400 15.948
29.9600 15.608
29.9800 15.411
30.0000 15.801
30.0200 15.233
30.0400 15.585
30.0600 16.008
30.0800 15.690
30.1000 15.680
30.1200 16.320
30.1400 15.746
30.1600 16.144
30.1800 15.898
30.2000 16.133
30.2200 15.817
30.2400 15.718
30.2600 16.229
30.2800 16.091
30.3000 15.826
30.3200 16.487
30.3400 16.008
30.3600 16.042
30.3800 16.189
30.4000 15.787
30.4200 16.072
30.4400 16.854
30.4600 16.565
30.4800 16.292
30.5000 16.830
30.5200 16.467
30.5400 16.210
30.5600 16.639
30.5800 16.607
30.6000 17.084
30.6200 16.857
30.6400 16.214
30.6600 15.980
30.6800 16.346
30.7000 16.080
30.7200 16.435
30.7400 16.879
30.7600 17.077
30.7800 16.799
30.8000 16.966
30.8200 17.198
30.8400 16.112
30.8600 16.652
30.8800 17.105
30.9000 17.060
30.9200 16.498
30.9400 16.571
30.9600 16.525
30.9800 16.625
31.0000 16.542
31.0200 16.962
31.0400 16.370
31.0600 16.764
31.0800 16.485
31.1000 17.083
31.1200 17.308
31.1400 16.807
31.1600 16.953
31.1800 16.631
31.2000 17.241
31.2200 16.682
31.2400 16.583
31.2600 17.260
31.2800 17.580
31.3000 16.731
31.3200 17.010
31.3400 17.572
31.3600 17.682
31.3800 17.066
31.4000 17.064
31.4200 16.831
31.4400 17.416
31.4600 17.520
31.4800 17.659
31.5000 17.956
31.5200 17.651
31.5400 17.458
31.5600 17.331
31.5800 17.716
31.6000 17.003
31.6200 16.980
31.6400 17.714
31.6600 17.634
31.6800 17.141
31.7000 16.748
31.7200 17.494
31.7400 17.280
31.7600 17.716
31.7800 18.154
31.8000 17.847
31.8200 17.982
31.8400 17.824
31.8600 18.083
31.8800 17.387
31.9000 17.650
31.9200 17.225
31.9400 18.031
31.9600 17.738
31.9800 17.733
32.0000 17.900
32.0200 17.728
32.0400 17.568
32.0600 17.815
32.0800 17.938
32.1000 17.001
32.1200 17.848
32.1400 17.894
32.1600 18.353
32.1800 18.112
32.2000 18.448
32.2200 18.652
32.2400 18.703
32.2600 18.371
32.2800 18.557
32.3000 18.133
32.3200 18.434
32.3400 18.256
32.3600 17.939
32.3800 17.799
32.4000 17.301
32.4200 18.751
32.4400 18.139
32.4600 17.828
32.4800 18.003
32.5000 17.878
32.5200 17.791
32.5400 18.673
32.5600 18.264
32.5800 18.951
32.6000 18.461
32.6200 18.666
32.6400 18.679
32.6600 18.632
32.6800 18.257
32.7000 18.595
32.7200 19.193
32.7400 18.300
32.7600 18.706
32.7800 18.767
32.8000 19.052
32.8200 18.516
32.8400 18.691
32.8600 19.041
32.8800 19.493
32.9000 19.135
32.9200 18.770
32.9400 18.781
32.9600 18.705
32.9800 18.862
33.0000 18.582
33.0200 18.507
33.0400 18.928
33.0600 19.149
33.0800 19.157
33.1000 19.474
33.1200 19.439
33.1400 19.104
33.1600 18.136
33.1800 19.165
33.2000 18.994
33.2200 19.541
33.2400 19.291
33.2600 18.900
33.2800 19.251
33.3000 19.362
33.3200 18.871
33.3400 19.134
33.3600 19.561
33.3800 18.967
33.4000 18.879
33.4200 19.067
33.4400 18.795
33.4600 19.083
33.4800 19.445
33.5000 19.205
33.5200 18.885
33.5400 19.674
33.5600 20.007
33.5800 19.659
33.6000 19.982
33.6200 19.414
33.6400 19.669
33.6600 19.440
33.6800 19.662
33.7000 19.615
33.7200 19.501
33.7400 20.058
33.7600 19.678
33.7800 19.580
33.8000 19.517
33.8200 19.446
33.8400 19.743
33.8600 19.759
33.8800 19.814
33.9000 20.068
33.9200 20.034
33.9400 20.227
33.9600 20.167
33.9800 21.258
34.0000 20.188
34.0200 20.394
34.0400 20.051
34.0600 20.430
34.0800 20.005
34.1000 20.328
34.1200 20.255
34.1400 20.310
34.1600 20.569
34.1800 20.293
34.2000 20.156
34.2200 19.691
34.2400 20.394
34.2600 20.275
34.2800 19.831
34.3000 20.720
34.3200 20.558
34.3400 19.886
34.3600 20.548
34.3800 20.305
34.4000 20.511
34.4200 20.766
34.4400 20.309
34.4600 20.419
34.4800 20.811
34.5000 20.645
34.5200 20.729
34.5400 20.777
34.5600 20.758
34.5800 21.142
34.6000 20.531
34.6200 20.575
34.6400 20.767
34.6600 20.993
34.6800 21.414
34.7000 21.127
34.7200 20.833
34.7400 20.396
34.7600 20.919
34.7800 20.766
34.8000 20.797
34.8200 21.218
34.8400 21.197
34.8600 20.953
34.8800 21.613
34.9000 21.307
34.9200 21.881
34.9400 22.215
34.9600 22.411
34.9800 22.600
35.0000 22.515
35.0200 22.362
35.0400 22.163
35.0600 21.263
35.0800 21.535
35.1000 21.729
35.1200 21.729
35.1400 21.540
35.1600 21.150
35.1800 21.057
35.2000 21.514
35.2200 21.914
35.2400 21.788
35.2600 21.673
35.2800 21.311
35.3000 21.839
35.3200 21.471
35.3400 20.934
35.3600 21.608
35.3800 20.979
35.4000 21.314
35.4200 21.493
35.4400 21.761
35.4600 22.426
35.4800 22.106
35.5000 21.603
35.5200 21.575
35.5400 21.985
35.5600 21.946
35.5800 21.742
35.6000 21.761
35.6200 21.473
35.6400 21.618
35.6600 22.652
35.6800 21.462
35.7000 22.120
35.7200 22.049
35.7400 22.024
35.7600 22.682
35.7800 22.196
35.8000 22.483
35.8200 22.136
35.8400 22.136
35.8600 22.648
35.8800 22.701
35.9000 22.224
35.9200 21.638
35.9400 21.993
35.9600 21.846
35.9800 21.904
36.0000 22.281
36.0200 21.814
36.0400 22.189
36.0600 23.379
36.0800 22.074
36.1000 22.589
36.1200 22.970
36.1400 22.221
36.1600 22.228
36.1800 22.332
36.2000 22.506
36.2200 22.208
36.2400 22.236
36.2600 22.540
36.2800 22.075
36.3000 23.104
36.3200 22.121
36.3400 22.850
36.3600 22.818
36.3800 22.534
36.4000 22.457
36.4200 23.076
36.4400 22.878
36.4600 22.315
36.4800 22.330
36.5000 22.822
36.5200 22.685
36.5400 22.977
36.5600 23.183
36.5800 23.329
36.6000 23.085
36.6200 23.759
36.6400 22.822
36.6600 23.295
36.6800 23.264
36.7000 23.064
36.7200 22.675
36.7400 23.182
36.7600 23.126
36.7800 23.935
36.8000 23.708
36.8200 23.130
36.8400 23.080
36.8600 23.003
36.8800 23.988
36.9000 23.380
36.9200 22.750
36.9400 23.360
36.9600 23.301
36.9800 23.866
37.0000 23.262
37.0200 23.652
37.0400 24.117
37.0600 23.178
37.0800 23.915
37.1000 23.538
37.1200 23.395
37.1400 24.105
37.1600 24.366
37.1800 24.313
37.2000 24.782
37.2200 23.430
37.2400 24.410
37.2600 25.197
37.2800 24.981
37.3000 24.127
37.3200 24.158
37.3400 24.493
37.3600 24.196
37.3800 24.267
37.4000 24.316
37.4200 24.842
37.4400 25.033
37.4600 24.769
37.4800 24.388
37.5000 24.564
37.5200 25.112
37.5400 25.164
37.5600 24.411
37.5800 24.536
37.6000 24.451
37.6200 24.994
37.6400 25.718
37.6600 24.789
37.6800 25.112
37.7000 24.885
37.7200 24.952
37.7400 24.658
37.7600 25.044
37.7800 25.171
37.8000 25.458
37.8200 24.867
37.8400 25.797
37.8600 25.271
37.8800 25.225
37.9000 26.081
37.9200 26.156
37.9400 25.776
37.9600 25.057
37.9800 25.701
38.0000 25.220
38.0200 25.446
38.0400 25.336
38.0600 25.091
38.0800 25.572
38.1000 25.324
38.1200 25.583
38.1400 24.887
38.1600 25.645
38.1800 25.683
38.2000 24.614
38.2200 25.551
38.2400 26.591
38.2600 26.356
38.2800 25.570
38.3000 26.030
38.3200 26.084
38.3400 26.082
38.3600 25.780
38.3800 26.050
38.4000 26.714
38.4200 26.098
38.4400 26.448
38.4600 26.349
38.4800 26.252
38.5000 26.691
38.5200 25.794
38.5400 25.819
38.5600 26.469
38.5800 26.092
38.6000 25.968
38.6200 26.655
38.6400 26.294
38.6600 26.375
38.6800 26.538
38.7000 26.888
38.7200 26.284
38.7400 26.301
38.7600 26.227
38.7800 26.742
38.8000 26.111
38.8200 26.293
38.8400 27.224
38.8600 26.001
38.8800 26.388
38.9000 26.361
38.9200 25.863
38.9400 27.000
38.9600 26.313
38.9800 26.196
39.0000 26.760
39.0200 27.037
39.0400 26.384
39.0600 27.062
39.0800 27.163
39.1000 27.206
39.1200 27.616
39.1400 27.623
39.1600 27.949
39.1800 27.643
39.2000 27.630
39.2200 26.856
39.2400 27.211
39.2600 27.435
39.2800 27.655
39.3000 27.607
39.3200 27.414
39.3400 26.679
39.3600 26.566
39.3800 26.824
39.4000 27.700
39.4200 27.696
39.4400 27.595
39.4600 27.211
39.4800 27.628
39.5000 27.579
39.5200 27.500
39.5400 27.446
39.5600 27.258
39.5800 27.811
39.6000 27.449
39.6200 27.937
39.6400 28.148
39.6600 27.797
39.6800 27.920
39.7000 27.005
39.7200 27.642
39.7400 28.065
39.7600 28.198
39.7800 28.963
39.8000 27.816
39.8200 27.729
39.8400 27.786
39.8600 27.951
39.8800 28.422
39.9000 28.083
39.9200 27.909
39.9400 28.453
39.9600 28.156
39.9800 28.120
40.0000 28.069
40.0200 27.877
40.0400 27.110
40.0600 27.474
40.0800 27.717
40.1000 27.318
40.1200 28.142
40.1400 27.536
40.1600 27.885
40.1800 28.532
40.2000 28.235
40.2200 28.190
40.2400 28.379
40.2600 27.801
40.2800 28.105
40.3000 27.651
40.3200 27.845
40.3400 27.651
40.3600 28.005
40.3800 28.089
40.4000 28.480
40.4200 28.839
40.4400 28.344
40.4600 28.330
40.4800 28.365
40.5000 28.437
40.5200 29.033
40.5400 28.364
40.5600 29.282
40.5800 28.430
40.6000 28.941
40.6200 29.025
40.6400 28.600
40.6600 28.840
40.6800 28.852
40.7000 27.510
40.7200 28.621
40.7400 28.289
40.7600 28.285
40.7800 28.963
40.8000 28.158
40.8200 28.916
40.8400 29.152
40.8600 28.340
40.8800 28.604
40.9000 28.981
40.9200 28.861
40.9400 29.364
40.9600 28.890
40.9800 28.635
41.0000 29.324
41.0200 28.503
41.0400 28.585
41.0600 29.879
41.0800 29.503
41.1000 28.620
41.1200 29.315
41.1400 29.376
41.1600 28.897
41.1800 29.076
41.2000 29.325
41.2200 28.980
41.2400 29.718
41.2600 29.523
41.2800 29.814
41.3000 29.690
41.3200 29.476
41.3400 29.665
41.3600 30.328
41.3800 29.027
41.4000 28.994
41.4200 28.781
41.4400 29.304
41.4600 28.954
41.4800 29.357
41.5000 29.525
41.5200 29.812
41.5400 29.542
41.5600 28.922
41.5800 30.097
41.6000 29.631
41.6200 29.708
41.6400 28.894
41.6600 30.108
41.6800 29.975
41.7000 30.308
41.7200 29.685
41.7400 28.719
41.7600 29.275
41.7800 28.961
41.8000 29.075
41.8200 29.083
41.8400 29.596
41.8600 30.199
41.8800 31.138
41.9000 29.481
41.9200 30.762
41.9400 29.709
41.9600 29.923
41.9800 29.913
42.0000 30.010
42.0200 30.086
42.0400 30.748
42.0600 30.154
42.0800 30.224
42.1000 30.274
42.1200 30.190
42.1400 30.472
42.1600 29.957
42.1800 30.695
42.2000 29.135
42.2200 30.638
42.2400 30.673
42.2600 30.597
42.2800 30.404
42.3000 30.546
42.3200 30.298
42.3400 29.902
42.3600 30.874
42.3800 31.016
42.4000 30.856
42.4200 30.346
42.4400 30.550
42.4600 31.095
42.4800 31.290
42.5000 31.675
42.5200 31.880
42.5400 31.439
42.5600 31.021
42.5800 31.711
42.6000 31.764
42.6200 31.825
42.6400 30.731
42.6600 31.194
42.6800 31.139
42.7000 31.199
42.7200 31.025
42.7400 30.950
42.7600 31.245
42.7800 31.391
42.8000 30.919
42.8200 30.889
42.8400 31.004
42.8600 31.532
42.8800 31.218
42.9000 31.324
42.9200 32.026
42.9400 30.992
42.9600 30.500
42.9800 31.462
43.0000 30.993
43.0200 31.821
43.0400 31.073
43.0600 31.271
43.0800 30.729
43.1000 30.888
43.1200 31.062
43.1400 29.981
43.1600 30.140
43.1800 31.228
43.2000 31.069
43.2200 30.730
43.2400 31.281
43.2600 30.900
43.2800 30.090
43.3000 30.754
43.3200 31.428
43.3400 30.529
43.3600 31.075
43.3800 30.809
43.4000 30.837
43.4200 30.711
43.4400 30.485
43.4600 31.363
43.4800 31.511
43.5000 31.537
43.5200 31.109
43.5400 31.374
43.5600 31.352
43.5800 31.678
43.6000 31.727
43.6200 31.794
43.6400 31.879
43.6600 30.872
43.6800 31.766
43.7000 31.873
43.7200 32.004
43.7400 32.185
43.7600 32.995
43.7800 32.205
43.8000 33.053
43.8200 32.825
43.8400 33.141
43.8600 32.944
43.8800 32.595
43.9000 33.215
43.9200 32.977
43.9400 34.437
43.9600 34.572
43.9800 34.845
44.0000 36.274
44.0200 37.807
44.0400 38.758
44.0600 43.614
44.0800 46.840
44.1000 52.391
44.1200 58.320
44.1400 61.734
44.1600 63.374
44.1800 62.443
44.2000 61.450
44.2200 58.313
44.2400 56.130
44.2600 54.301
44.2800 52.338
44.3000 48.955
44.3200 44.712
44.3400 41.174
44.3600 39.180
44.3800 38.041
44.4000 35.708
44.4200 34.684
44.4400 33.724
44.4600 33.832
44.4800 32.248
44.5000 33.269
44.5200 32.738
44.5400 33.205
44.5600 33.467
44.5800 32.309
44.6000 32.730
44.6200 33.310
44.6400 33.121
44.6600 32.302
44.6800 32.352
44.7000 32.971
44.7200 32.997
44.7400 32.885
44.7600 32.772
44.7800 33.385
44.8000 34.491
44.8200 36.286
44.8400 40.692
44.8600 43.784
44.8800 41.616
44.9000 40.527
44.9200 39.875
44.9400 40.251
44.9600 41.798
44.9800 42.811
45.0000 42.231
45.0200 42.180
45.0400 41.664
45.0600 39.449
45.0800 39.801
45.1000 39.870
45.1200 40.080
45.1400 39.904
45.1600 39.407
45.1800 39.357
45.2000 39.466
45.2200 39.341
45.2400 39.436
45.2600 38.192
45.2800 38.711
45.3000 38.946
45.3200 38.236
45.3400 36.999
45.3600 36.864
45.3800 35.865
45.4000 35.857
45.4200 35.073
45.4400 34.892
45.4600 34.027
45.4800 34.439
45.5000 33.649
45.5200 32.875
45.5400 33.528
45.5600 33.200
45.5800 33.663
45.6000 33.632
45.6200 33.431
45.6400 32.462
45.6600 32.069
45.6800 32.697
45.7000 33.383
45.7200 32.685
45.7400 31.955
45.7600 32.732
45.7800 32.416
45.8000 32.419
45.8200 32.629
45.8400 32.685
45.8600 33.371
45.8800 33.008
45.9000 33.387
45.9200 32.025
45.9400 31.688
45.9600 31.997
45.9800 32.308
46.0000 32.296
46.0200 32.500
46.0400 32.708
46.0600 33.721
46.0800 34.023
46.1000 33.290
46.1200 32.157
46.1400 32.617
46.1600 32.839
46.1800 32.245
46.2000 33.374
46.2200 32.998
46.2400 32.472
46.2600 32.768
46.2800 33.058
46.3000 32.747
46.3200 32.879
46.3400 33.345
46.3600 32.608
46.3800 33.163
46.4000 32.565
46.4200 32.565
46.4400 33.086
46.4600 32.569
46.4800 32.421
46.5000 33.303
46.5200 32.265
46.5400 32.525
46.5600 32.931
46.5800 34.080
46.6000 33.335
46.6200 32.824
46.6400 32.674
46.6600 32.920
46.6800 32.914
46.7000 32.692
46.7200 32.465
46.7400 32.621
46.7600 32.395
46.7800 33.211
46.8000 33.065
46.8200 33.249
46.8400 33.737
46.8600 33.038
46.8800 33.011
46.9000 33.219
46.9200 33.183
46.9400 33.277
46.9600 33.370
46.9800 33.962
47.0000 34.207
47.0200 32.902
47.0400 33.288
47.0600 33.194
47.0800 33.265
47.1000 32.724
47.1200 32.615
47.1400 33.600
47.1600 33.939
47.1800 33.558
47.2000 33.416
47.2200 32.534
47.2400 32.038
47.2600 32.744
47.2800 33.460
47.3000 33.462
47.3200 32.970
47.3400 32.900
47.3600 32.935
47.3800 34.645
47.4000 33.678
47.4200 33.285
47.4400 33.306
47.4600 33.197
47.4800 33.944
47.5000 34.221
47.5200 33.969
47.5400 33.274
47.5600 34.166
47.5800 33.875
47.6000 33.303
47.6200 33.181
47.6400 33.363
47.6600 33.708
47.6800 33.632
47.7000 33.560
47.7200 35.250
47.7400 34.496
47.7600 33.686
47.7800 33.296
47.8000 34.609
47.8200 34.654
47.8400 33.802
47.8600 33.303
47.8800 33.957
47.9000 33.417
47.9200 34.255
47.9400 35.203
47.9600 34.782
47.9800 34.018
48.0000 34.398
48.0200 34.888
48.0400 34.521
48.0600 34.098
48.0800 33.394
48.1000 33.364
48.1200 34.125
48.1400 35.087
48.1600 35.567
48.1800 33.703
48.2000 33.761
48.2200 33.813
48.2400 34.709
48.2600 34.120
48.2800 33.506
48.3000 34.047
48.3200 33.616
48.3400 34.500
48.3600 34.703
48.3800 33.990
48.4000 34.025
48.4200 35.045
48.4400 34.415
48.4600 34.170
48.4800 35.150
48.5000 34.257
48.5200 35.312
48.5400 34.509
48.5600 34.029
48.5800 34.235
48.6000 34.407
48.6200 34.065
48.6400 34.908
48.6600 34.449
48.6800 34.916
48.7000 34.654
48.7200 34.490
48.7400 34.829
48.7600 35.083
48.7800 34.763
48.8000 34.481
48.8200 33.964
48.8400 33.977
48.8600 34.930
48.8800 34.249
48.9000 34.527
48.9200 34.415
48.9400 34.411
48.9600 33.963
48.9800 34.485
49.0000 34.855
49.0200 34.283
49.0400 34.841
49.0600 34.799
49.0800 34.972
49.1000 34.264
49.1200 34.842
49.1400 33.774
49.1600 34.373
49.1800 34.846
49.2000 35.486
49.2200 35.698
49.2400 34.998
49.2600 35.114
49.2800 34.911
49.3000 34.885
49.3200 34.640
49.3400 34.296
49.3600 34.489
49.3800 34.710
49.4000 35.125
49.4200 34.968
49.4400 34.739
49.4600 35.026
49.4800 35.458
49.5000 34.936
49.5200 35.893
49.5400 33.930
49.5600 35.063
49.5800 35.783
49.6000 35.233
49.6200 34.938
49.6400 35.300
49.6600 35.082
49.6800 36.029
49.7000 35.503
49.7200 35.688
49.7400 35.822
49.7600 35.092
49.7800 36.099
49.8000 35.889
49.8200 35.266
49.8400 35.983
49.8600 36.126
49.8800 35.496
49.9000 35.846
49.9200 35.712
49.9400 35.993
49.9600 35.827
49.9800 35.964
50.0000 35.565
50.0200 35.490
50.0400 35.365
50.0600 35.075
50.0800 35.702
50.1000 35.494
50.1200 35.629
50.1400 36.212
50.1600 35.936
50.1800 36.022
50.2000 36.273
50.2200 35.749
50.2400 35.404
50.2600 35.542
50.2800 35.822
50.3000 36.282
50.3200 36.457
50.3400 36.342
50.3600 36.439
50.3800 35.188
50.4000 36.115
50.4200 36.228
50.4400 35.784
50.4600 36.257
50.4800 36.580
50.5000 36.158
50.5200 36.810
50.5400 36.219
50.5600 36.184
50.5800 36.242
50.6000 36.846
50.6200 37.482
50.6400 35.951
50.6600 36.239
50.6800 37.083
50.7000 37.970
50.7200 36.948
50.7400 36.174
50.7600 36.657
50.7800 36.330
50.8000 35.846
50.8200 37.092
50.8400 36.846
50.8600 36.996
50.8800 36.173
50.9000 36.682
50.9200 36.228
50.9400 36.153
50.9600 36.495
50.9800 36.089
51.0000 36.543
51.0200 37.285
51.0400 37.049
51.0600 36.783
51.0800 37.349
51.1000 36.089
51.1200 36.114
51.1400 36.140
51.1600 37.373
51.1800 36.857
51.2000 36.686
51.2200 36.098
51.2400 36.473
51.2600 36.765
51.2800 37.367
51.3000 37.982
51.3200 36.959
51.3400 37.044
51.3600 36.014
51.3800 37.540
51.4000 36.556
51.4200 37.646
51.4400 36.616
51.4600 37.068
51.4800 37.610
51.5000 37.199
51.5200 37.289
51.5400 37.606
51.5600 37.849
51.5800 38.095
51.6000 37.498
51.6200 37.864
51.6400 37.581
51.6600 37.340
51.6800 37.762
51.7000 37.306
51.7200 37.709
51.7400 37.321
51.7600 37.181
51.7800 38.095
51.8000 37.332
51.8200 36.881
51.8400 37.316
51.8600 37.325
51.8800 37.233
51.9000 37.317
51.9200 37.606
51.9400 38.264
51.9600 38.093
51.9800 37.614
52.0000 38.128
52.0200 37.688
52.0400 37.271
52.0600 37.790
52.0800 37.106
52.1000 37.908
52.1200 38.141
52.1400 37.499
52.1600 37.807
52.1800 37.113
52.2000 38.210
52.2200 38.160
52.2400 37.756
52.2600 37.118
52.2800 37.402
52.3000 38.616
52.3200 37.883
52.3400 37.813
52.3600 37.679
52.3800 37.685
52.4000 37.931
52.4200 38.347
52.4400 37.793
52.4600 37.947
52.4800 37.977
52.5000 37.560
52.5200 37.560
52.5400 38.091
52.5600 37.019
52.5800 37.537
52.6000 37.238
52.6200 37.758
52.6400 37.502
52.6600 37.773
52.6800 37.294
52.7000 38.176
52.7200 38.034
52.7400 38.503
52.7600 38.518
52.7800 38.908
52.8000 38.363
52.8200 38.347
52.8400 38.574
52.8600 38.624
52.8800 39.104
52.9000 37.987
52.9200 37.084
52.9400 37.642
52.9600 38.028
52.9800 38.586
53.0000 38.687
53.0200 38.430
53.0400 38.211
53.0600 38.023
53.0800 38.460
53.1000 38.922
53.1200 38.689
53.1400 38.724
53.1600 38.651
53.1800 38.729
53.2000 38.835
53.2200 38.495
53.2400 38.534
53.2600 38.777
53.2800 38.004
53.3000 38.567
53.3200 38.329
53.3400 38.720
53.3600 38.255
53.3800 38.430
53.4000 39.529
53.4200 38.676
53.4400 38.774
53.4600 38.965
53.4800 38.551
53.5000 39.072
53.5200 39.192
53.5400 38.580
53.5600 38.720
53.5800 38.335
53.6000 38.501
53.6200 38.838
53.6400 37.434
53.6600 38.562
53.6800 38.147
53.7000 38.827
53.7200 38.675
53.7400 38.252
53.7600 38.776
53.7800 39.174
53.8000 38.562
53.8200 38.835
53.8400 38.532
53.8600 38.844
53.8800 39.113
53.9000 38.321
53.9200 39.178
53.9400 38.510
53.9600 39.445
53.9800 38.617
54.0000 38.749
54.0200 38.444
54.0400 38.771
54.0600 38.165
54.0800 38.926
54.1000 39.404
54.1200 39.644
54.1400 39.154
54.1600 38.481
54.1800 38.528
54.2000 38.740
54.2200 39.465
54.2400 38.642
54.2600 38.798
54.2800 38.621
54.3000 39.638
54.3200 39.217
54.3400 40.031
54.3600 39.834
54.3800 39.389
54.4000 39.257
54.4200 38.179
54.4400 38.782
54.4600 38.908
54.4800 38.904
54.5000 38.447
54.5200 38.673
54.5400 38.549
54.5600 39.022
54.5800 39.903
54.6000 38.939
54.6200 38.720
54.6400 39.517
54.6600 39.248
54.6800 39.293
54.7000 38.229
54.7200 39.177
54.7400 38.888
54.7600 39.408
54.7800 39.634
54.8000 38.478
54.8200 38.732
54.8400 39.119
54.8600 39.374
54.8800 39.871
54.9000 39.584
54.9200 40.118
54.9400 39.642
54.9600 39.655
54.9800 39.536
55.0000 39.302
55.0200 38.625
55.0400 39.349
55.0600 38.958
55.0800 39.537
55.1000 38.701
55.1200 38.790
55.1400 38.347
55.1600 40.277
55.1800 40.035
55.2000 40.498
55.2200 39.625
55.2400 40.300
55.2600 39.607
55.2800 39.627
55.3000 39.031
55.3200 39.651
55.3400 39.537
55.3600 40.077
55.3800 40.003
55.4000 39.664
55.4200 40.756
55.4400 40.651
55.4600 39.602
55.4800 39.947
55.5000 39.657
55.5200 39.076
55.5400 40.692
55.5600 39.737
55.5800 40.505
55.6000 40.295
55.6200 39.710
55.6400 39.929
55.6600 40.440
55.6800 40.664
55.7000 39.659
55.7200 40.288
55.7400 40.244
55.7600 40.576
55.7800 40.077
55.8000 39.326
55.8200 39.562
55.8400 39.703
55.8600 39.694
55.8800 40.505
55.9000 41.040
55.9200 39.986
55.9400 40.689
55.9600 40.873
55.9800 40.426
56.0000 40.861
56.0200 40.108
56.0400 40.345
56.0600 40.568
56.0800 40.579
56.1000 40.542
56.1200 40.844
56.1400 40.455
56.1600 40.885
56.1800 41.234
56.2000 40.044
56.2200 41.476
56.2400 40.616
56.2600 41.393
56.2800 41.051
56.3000 40.846
56.3200 41.495
56.3400 41.602
56.3600 41.502
56.3800 40.889
56.4000 41.693
56.4200 41.289
56.4400 41.830
56.4600 41.548
56.4800 40.576
56.5000 40.430
56.5200 41.769
56.5400 41.626
56.5600 40.182
56.5800 40.973
56.6000 40.222
56.6200 41.621
56.6400 41.717
56.6600 41.572
56.6800 40.620
56.7000 41.555
56.7200 41.297
56.7400 41.359
56.7600 41.571
56.7800 41.461
56.8000 41.097
56.8200 40.639
56.8400 40.897
56.8600 41.631
56.8800 41.907
56.9000 41.349
56.9200 40.713
56.9400 40.548
56.9600 40.732
56.9800 42.352
57.0000 40.979
57.0200 40.794
57.0400 42.426
57.0600 41.492
57.0800 41.904
57.1000 41.985
57.1200 41.460
57.1400 41.369
57.1600 41.536
57.1800 42.282
57.2000 42.994
57.2200 41.917
57.2400 42.523
57.2600 41.808
57.2800 42.025
57.3000 41.932
57.3200 42.472
57.3400 42.602
57.3600 41.862
57.3800 43.122
57.4000 42.024
57.4200 41.696
57.4400 42.378
57.4600 41.299
57.4800 42.470
57.5000 43.567
57.5200 43.313
57.5400 43.591
57.5600 42.544
57.5800 41.708
57.6000 42.465
57.6200 42.219
57.6400 42.777
57.6600 42.399
57.6800 42.066
57.7000 42.629
57.7200 42.256
57.7400 41.919
57.7600 42.403
57.7800 41.866
57.8000 42.874
57.8200 42.447
57.8400 42.934
57.8600 43.278
57.8800 42.575
57.9000 41.781
57.9200 42.176
57.9400 43.432
57.9600 42.533
57.9800 42.773
58.0000 43.138
58.0200 44.141
58.0400 44.427
58.0600 45.317
58.0800 44.909
58.1000 44.480
58.1200 44.934
58.1400 44.897
58.1600 44.975
58.1800 45.178
58.2000 46.216
58.2200 47.143
58.2400 46.854
58.2600 47.558
58.2800 48.287
58.3000 48.247
58.3200 47.659
58.3400 48.118
58.3600 48.081
58.3800 48.721
58.4000 48.140
58.4200 48.973
58.4400 50.308
58.4600 50.446
58.4800 49.771
58.5000 50.506
58.5200 50.444
58.5400 49.560
58.5600 49.544
58.5800 51.056
58.6000 51.039
58.6200 50.444
58.6400 50.624
58.6600 50.240
58.6800 50.301
58.7000 50.780
58.7200 50.746
58.7400 50.936
58.7600 50.896
58.7800 50.975
58.8000 51.738
58.8200 50.896
58.8400 51.226
58.8600 50.352
58.8800 50.603
58.9000 51.050
58.9200 50.711
58.9400 49.084
58.9600 49.701
58.9800 48.614
59.0000 49.405
59.0200 48.182
59.0400 47.347
59.0600 47.308
59.0800 47.024
59.1000 45.885
59.1200 45.016
59.1400 45.655
59.1600 45.310
59.1800 45.422
59.2000 45.027
59.2200 45.468
59.2400 44.590
59.2600 45.394
59.2800 44.441
59.3000 43.752
59.3200 44.609
59.3400 44.304
59.3600 44.031
59.3800 44.553
59.4000 44.107
59.4200 43.812
59.4400 44.599
59.4600 44.540
59.4800 43.888
59.5000 43.706
59.5200 44.096
59.5400 43.878
59.5600 44.622
59.5800 44.363
59.6000 44.004
59.6200 43.278
59.6400 43.344
59.6600 43.571
59.6800 43.369
59.7000 43.756
59.7200 43.851
59.7400 44.108
59.7600 43.281
59.7800 43.609
59.8000 43.384
59.8200 44.313
59.8400 43.859
59.8600 43.756
59.8800 42.917
59.9000 43.345
59.9200 42.945
59.9400 44.244
59.9600 43.585
59.9800 43.934
60.0000 43.717
60.0200 43.443
60.0400 43.759
60.0600 43.363
60.0800 43.802
60.1000 43.555
60.1200 43.773
60.1400 42.422
60.1600 44.051
60.1800 43.954
60.2000 44.025
60.2200 43.801
60.2400 44.386
60.2600 44.444
60.2800 44.049
60.3000 44.639
60.3200 44.038
60.3400 44.323
60.3600 43.845
60.3800 44.274
60.4000 44.370
60.4200 43.921
60.4400 44.042
60.4600 43.423
60.4800 44.100
60.5000 43.644
60.5200 44.684
60.5400 43.378
60.5600 43.350
60.5800 43.711
60.6000 43.538
60.6200 44.111
60.6400 44.431
60.6600 43.964
60.6800 43.209
60.7000 44.408
60.7200 43.555
60.7400 44.290
60.7600 43.255
60.7800 43.482
60.8000 43.909
60.8200 45.270
60.8400 42.909
60.8600 44.581
60.8800 43.481
60.9000 43.599
60.9200 43.567
60.9400 43.489
60.9600 44.506
60.9800 43.942
61.0000 44.291
61.0200 44.765
61.0400 43.962
61.0600 44.514
61.0800 44.536
61.1000 44.468
61.1200 44.064
61.1400 44.167
61.1600 44.786
61.1800 45.508
61.2000 45.058
61.2200 43.809
61.2400 44.222
61.2600 44.091
61.2800 44.656
61.3000 44.351
61.3200 43.822
61.3400 45.016
61.3600 44.714
61.3800 44.864
61.4000 44.422
61.4200 45.139
61.4400 44.677
61.4600 44.411
61.4800 45.127
61.5000 44.822
61.5200 44.395
61.5400 44.700
61.5600 45.455
61.5800 45.670
61.6000 45.541
61.6200 44.629
61.6400 45.507
61.6600 44.814
61.6800 44.743
61.7000 45.993
61.7200 43.480
61.7400 44.111
61.7600 44.518
61.7800 44.155
61.8000 45.290
61.8200 45.730
61.8400 45.809
61.8600 46.275
61.8800 45.799
61.9000 45.121
61.9200 45.367
61.9400 45.939
61.9600 45.944
61.9800 44.560
62.0000 45.888
62.0200 45.711
62.0400 46.380
62.0600 46.008
62.0800 45.744
62.1000 44.668
62.1200 44.753
62.1400 44.964
62.1600 45.222
62.1800 44.661
62.2000 44.770
62.2200 44.964
62.2400 45.538
62.2600 45.051
62.2800 45.841
62.3000 44.362
62.3200 45.595
62.3400 44.896
62.3600 45.658
62.3800 44.436
62.4000 45.589
62.4200 45.817
62.4400 44.854
62.4600 45.006
62.4800 45.103
62.5000 44.608
62.5200 45.808
62.5400 46.089
62.5600 46.300
62.5800 44.743
62.6000 46.214
62.6200 45.832
62.6400 46.179
62.6600 45.528
62.6800 44.497
62.7000 45.248
62.7200 44.525
62.7400 45.932
62.7600 45.658
62.7800 45.307
62.8000 44.914
62.8200 45.633
62.8400 45.762
62.8600 45.179
62.8800 44.718
62.9000 46.194
62.9200 45.914
62.9400 44.895
62.9600 45.894
62.9800 45.848
63.0000 45.591
63.0200 46.731
63.0400 45.538
63.0600 45.150
63.0800 45.119
63.1000 45.417
63.1200 44.854
63.1400 45.884
63.1600 45.678
63.1800 45.574
63.2000 45.320
63.2200 45.560
63.2400 45.274
63.2600 45.531
63.2800 45.619
63.3000 44.933
63.3200 45.571
63.3400 46.090
63.3600 45.080
63.3800 45.893
63.4000 45.637
63.4200 45.192
63.4400 46.979
63.4600 44.884
63.4800 45.483
63.5000 45.316
63.5200 46.557
63.5400 45.782
63.5600 45.541
63.5800 45.228
63.6000 46.197
63.6200 45.028
63.6400 44.805
63.6600 45.671
63.6800 45.852
63.7000 46.197
63.7200 47.138
63.7400 46.828
63.7600 46.398
63.7800 46.608
63.8000 45.930
63.8200 46.183
63.8400 46.713
63.8600 46.935
63.8800 47.283
63.9000 47.168
63.9200 46.725
63.9400 46.863
63.9600 46.620
63.9800 46.601
64.0000 45.558
64.0200 46.425
64.0400 47.810
64.0600 48.738
64.0800 48.029
64.1000 47.030
64.1200 47.968
64.1400 49.877
64.1600 49.647
64.1800 50.206
64.2000 51.245
64.2200 51.890
64.2400 53.060
64.2600 53.440
64.2800 54.265
64.3000 55.308
64.3200 55.755
64.3400 55.592
64.3600 56.494
64.3800 55.656
64.4000 54.754
64.4200 53.739
64.4400 54.765
64.4600 54.627
64.4800 52.897
64.5000 53.501
64.5200 52.302
64.5400 52.825
64.5600 52.028
64.5800 50.960
64.6000 51.087
64.6200 50.661
64.6400 49.746
64.6600 49.199
64.6800 49.214
64.7000 48.318
64.7200 48.425
64.7400 47.421
64.7600 47.518
64.7800 47.324
64.8000 46.772
64.8200 46.803
64.8400 47.392
64.8600 46.199
64.8800 46.214
64.9000 46.864
64.9200 46.725
64.9400 47.582
64.9600 47.618
64.9800 47.699
65.0000 47.923
65.0200 47.848
65.0400 46.817
65.0600 46.724
65.0800 46.752
65.1000 46.866
65.1200 47.416
65.1400 47.327
65.1600 47.085
65.1800 46.084
65.2000 48.008
65.2200 47.525
65.2400 48.084
65.2600 47.829
65.2800 45.989
65.3000 47.467
65.3200 47.752
65.3400 46.423
65.3600 46.108
65.3800 46.984
65.4000 45.690
65.4200 47.172
65.4400 47.441
65.4600 47.014
65.4800 46.951
65.5000 47.172
65.5200 47.368
65.5400 47.301
65.5600 46.568
65.5800 47.972
65.6000 47.744
65.6200 46.515
65.6400 46.733
65.6600 46.136
65.6800 47.678
65.7000 46.663
65.7200 46.451
65.7400 48.070
65.7600 47.323
65.7800 47.726
65.8000 46.843
65.8200 47.345
65.8400 46.969
65.8600 47.918
65.8800 47.034
65.9000 48.224
65.9200 46.764
65.9400 47.698
65.9600 47.469
65.9800 48.797
66.0000 46.291
66.0200 48.197
66.0400 47.872
66.0600 47.445
66.0800 47.673
66.1000 48.157
66.1200 48.330
66.1400 48.489
66.1600 47.615
66.1800 48.240
66.2000 47.818
66.2200 47.756
66.2400 47.137
66.2600 47.064
66.2800 47.559
66.3000 47.637
66.3200 47.192
66.3400 47.977
66.3600 47.782
66.3800 46.867
66.4000 47.715
66.4200 47.280
66.4400 47.380
66.4600 47.389
66.4800 48.387
66.5000 47.720
66.5200 48.980
66.5400 48.763
66.5600 47.760
66.5800 49.293
66.6000 48.791
66.6200 48.459
66.6400 49.344
66.6600 48.789
66.6800 47.956
66.7000 47.700
66.7200 47.221
66.7400 47.665
66.7600 48.019
66.7800 47.820
66.8000 47.968
66.8200 47.179
66.8400 48.402
66.8600 48.114
66.8800 48.907
66.9000 47.985
66.9200 47.270
66.9400 48.003
66.9600 48.623
66.9800 49.641
67.0000 48.203
67.0200 49.487
67.0400 47.818
67.0600 48.385
67.0800 47.977
67.1000 47.986
67.1200 48.551
67.1400 48.797
67.1600 49.247
67.1800 49.097
67.2000 48.358
67.2200 48.873
67.2400 49.274
67.2600 49.503
67.2800 48.868
67.3000 49.440
67.3200 49.724
67.3400 49.049
67.3600 49.931
67.3800 50.043
67.4000 49.249
67.4200 50.652
67.4400 48.976
67.4600 50.125
67.4800 49.974
67.5000 49.595
67.5200 49.749
67.5400 49.751
67.5600 49.569
67.5800 49.244
67.6000 50.987
67.6200 49.561
67.6400 50.097
67.6600 51.048
67.6800 50.455
67.7000 51.157
67.7200 49.830
67.7400 49.776
67.7600 50.319
67.7800 49.818
67.8000 50.610
67.8200 51.037
67.8400 51.069
67.8600 49.084
67.8800 47.731
67.9000 49.959
67.9200 49.423
67.9400 49.448
67.9600 49.640
67.9800 49.342
68.0000 50.122
68.0200 49.761
68.0400 49.182
68.0600 48.520
68.0800 49.339
68.1000 50.229
68.1200 49.289
68.1400 49.031
68.1600 50.020
68.1800 49.294
68.2000 49.252
68.2200 48.662
68.2400 48.171
68.2600 49.213
68.2800 50.008
68.3000 48.554
68.3200 49.392
68.3400 49.088
68.3600 49.075
68.3800 49.460
68.4000 48.419
68.4200 49.457
68.4400 48.646
68.4600 50.247
68.4800 48.660
68.5000 48.374
68.5200 48.645
68.5400 49.591
68.5600 50.217
68.5800 48.804
68.6000 48.554
68.6200 48.766
68.6400 49.275
68.6600 50.301
68.6800 48.684
68.7000 49.591
68.7200 48.012
68.7400 49.335
68.7600 48.376
68.7800 49.648
68.8000 48.371
68.8200 49.136
68.8400 49.132
68.8600 49.308
68.8800 49.235
68.9000 49.298
68.9200 49.864
68.9400 48.827
68.9600 49.075
68.9800 49.675
69.0000 49.650
69.0200 48.897
69.0400 49.080
69.0600 49.358
69.0800 49.287
69.1000 48.183
69.1200 48.584
69.1400 49.476
69.1600 49.615
69.1800 48.320
69.2000 48.770
69.2200 49.185
69.2400 49.918
69.2600 49.638
69.2800 49.456
69.3000 49.530
69.3200 50.070
69.3400 50.035
69.3600 49.740
69.3800 49.371
69.4000 50.000
69.4200 50.394
69.4400 48.311
69.4600 48.416
69.4800 49.874
69.5000 50.179
69.5200 50.540
69.5400 50.010
69.5600 49.809
69.5800 48.754
69.6000 49.468
69.6200 49.584
69.6400 50.357
69.6600 50.567
69.6800 50.154
69.7000 50.562
69.7200 49.272
69.7400 50.882
69.7600 49.939
69.7800 49.696
69.8000 50.394
69.8200 50.005
69.8400 49.873
69.8600 50.442
69.8800 50.486
69.9000 49.954
69.9200 50.386
69.9400 49.442
69.9600 50.110
69.9800 50.435
70.0000 50.110
70.0200 50.193
70.0400 50.590
70.0600 49.659
70.0800 49.672
70.1000 50.457
70.1200 50.780
70.1400 50.679
70.1600 50.225
70.1800 50.829
70.2000 51.321
70.2200 50.701
70.2400 50.452
70.2600 49.907
70.2800 50.394
70.3000 50.424
70.3200 49.465
70.3400 50.186
70.3600 50.574
70.3800 50.432
70.4000 51.630
70.4200 49.870
70.4400 50.840
70.4600 50.425
70.4800 51.342
70.5000 49.531
70.5200 50.177
70.5400 50.879
70.5600 51.371
70.5800 50.504
70.6000 50.381
70.6200 50.578
70.6400 50.579
70.6600 50.648
70.6800 50.977
70.7000 49.964
70.7200 50.334
70.7400 51.676
70.7600 52.467
70.7800 51.042
70.8000 51.133
70.8200 51.424
70.8400 51.005
70.8600 50.988
70.8800 49.872
70.9000 50.160
70.9200 51.310
70.9400 52.072
70.9600 51.606
70.9800 50.259
71.0000 51.992
71.0200 50.936
71.0400 50.676
71.0600 51.915
71.0800 51.492
71.1000 51.413
71.1200 50.933
71.1400 50.498
71.1600 51.450
71.1800 50.160
71.2000 51.195
71.2200 51.772
71.2400 51.540
71.2600 50.667
71.2800 51.052
71.3000 50.387
71.3200 51.191
71.3400 51.353
71.3600 50.975
71.3800 50.827
71.4000 51.557
71.4200 51.367
71.4400 51.197
71.4600 51.556
71.4800 51.394
71.5000 51.482
71.5200 50.560
71.5400 51.295
71.5600 51.131
71.5800 51.457
71.6000 51.038
71.6200 51.025
71.6400 51.150
71.6600 53.173
71.6800 51.324
71.7000 50.939
71.7200 51.493
71.7400 51.010
71.7600 51.800
71.7800 51.312
71.8000 50.544
71.8200 51.611
71.8400 51.847
71.8600 51.279
71.8800 52.474
71.9000 51.304
71.9200 52.173
71.9400 50.925
71.9600 52.304
71.9800 52.225
72.0000 50.910
72.0200 51.853
72.0400 51.582
72.0600 51.598
72.0800 52.130
72.1000 51.606
72.1200 50.874
72.1400 51.594
72.1600 51.282
72.1800 51.959
72.2000 52.722
72.2200 52.642
72.2400 52.663
72.2600 52.179
72.2800 51.710
72.3000 51.511
72.3200 51.730
72.3400 51.346
72.3600 52.215
72.3800 51.096
72.4000 53.227
72.4200 51.857
72.4400 51.575
72.4600 50.640
72.4800 52.396
72.5000 52.022
72.5200 52.053
72.5400 51.745
72.5600 52.187
72.5800 52.132
72.6000 51.165
72.6200 51.841
72.6400 52.425
72.6600 52.629
72.6800 53.114
72.7000 51.881
72.7200 52.586
72.7400 51.811
72.7600 52.727
72.7800 52.695
72.8000 52.652
72.8200 52.430
72.8400 52.339
72.8600 52.909
72.8800 52.880
72.9000 52.961
72.9200 52.430
72.9400 54.153
72.9600 52.714
72.9800 52.156
73.0000 53.420
73.0200 52.416
73.0400 53.343
73.0600 52.700
73.0800 53.071
73.1000 52.471
73.1200 52.887
73.1400 53.286
73.1600 52.781
73.1800 51.901
73.2000 53.087
73.2200 53.788
73.2400 52.839
73.2600 53.037
73.2800 52.552
73.3000 52.639
73.3200 52.929
73.3400 52.674
73.3600 52.796
73.3800 52.743
73.4000 52.971
73.4200 53.477
73.4400 52.632
73.4600 53.195
73.4800 52.410
73.5000 53.059
73.5200 52.806
73.5400 51.621
73.5600 52.300
73.5800 52.364
73.6000 52.804
73.6200 52.540
73.6400 53.747
73.6600 54.164
73.6800 53.615
73.7000 52.721
73.7200 52.715
73.7400 53.126
73.7600 53.247
73.7800 53.325
73.8000 53.830
73.8200 53.441
73.8400 52.632
73.8600 53.360
73.8800 54.153
73.9000 53.935
73.9200 54.321
73.9400 53.688
73.9600 53.814
73.9800 54.043
74.0000 53.719
74.0200 53.619
74.0400 53.388
74.0600 54.386
74.0800 53.795
74.1000 54.775
74.1200 54.315
74.1400 53.642
74.1600 54.567
74.1800 54.086
74.2000 53.094
74.2200 52.438
74.2400 52.788
74.2600 53.461
74.2800 53.703
74.3000 53.449
74.3200 53.365
74.3400 53.881
74.3600 54.759
74.3800 54.664
74.4000 53.960
74.4200 54.344
74.4400 53.447
74.4600 54.010
74.4800 53.857
74.5000 54.172
74.5200 54.855
74.5400 54.773
74.5600 53.636
74.5800 54.362
74.6000 53.884
74.6200 53.435
74.6400 52.807
74.6600 55.285
74.6800 54.211
74.7000 54.296
74.7200 53.277
74.7400 54.659
74.7600 53.713
74.7800 54.097
74.8000 55.298
74.8200 55.191
74.8400 54.070
74.8600 53.819
74.8800 53.959
74.9000 53.992
74.9200 54.071
74.9400 53.832
74.9600 54.166
74.9800 53.138
75.0000 54.713
75.0200 54.509
75.0400 55.620
75.0600 53.038
75.0800 54.779
75.1000 54.477
75.1200 55.456
75.1400 55.514
75.1600 54.537
75.1800 55.158
75.2000 55.185
75.2200 54.296
75.2400 54.668
75.2600 54.075
75.2800 54.003
75.3000 54.233
75.3200 54.702
75.3400 55.096
75.3600 54.412
75.3800 53.949
75.4000 54.534
75.4200 53.716
75.4400 54.490
75.4600 54.363
75.4800 55.543
75.5000 54.039
75.5200 53.824
75.5400 54.518
75.5600 54.162
75.5800 55.454
75.6000 55.327
75.6200 54.684
75.6400 55.093
75.6600 55.308
75.6800 54.436
75.7000 56.092
75.7200 55.591
75.7400 54.250
75.7600 53.696
75.7800 54.677
75.8000 55.698
75.8200 55.681
75.8400 55.649
75.8600 55.280
75.8800 54.899
75.9000 55.526
75.9200 55.913
75.9400 56.170
75.9600 55.243
75.9800 56.375
76.0000 56.089
76.0200 55.531
76.0400 54.670
76.0600 55.182
76.0800 55.337
76.1000 56.049
76.1200 55.336
76.1400 55.777
76.1600 55.619
76.1800 54.687
76.2000 54.211
76.2200 54.652
76.2400 54.256
76.2600 54.917
76.2800 54.592
76.3000 56.471
76.3200 54.763
76.3400 54.841
76.3600 55.475
76.3800 55.918
76.4000 56.078
76.4200 55.567
76.4400 55.110
76.4600 56.132
76.4800 55.093
76.5000 56.100
76.5200 55.936
76.5400 54.663
76.5600 55.691
76.5800 55.921
76.6000 56.204
76.6200 55.676
76.6400 55.510
76.6600 55.252
76.6800 55.043
76.7000 55.214
76.7200 55.379
76.7400 56.348
76.7600 55.546
76.7800 54.646
76.8000 55.199
76.8200 55.546
76.8400 55.536
76.8600 56.026
76.8800 55.317
76.9000 55.788
76.9200 55.928
76.9400 56.717
76.9600 54.956
76.9800 57.532
77.0000 55.715
77.0200 56.221
77.0400 55.691
77.0600 55.807
77.0800 56.602
77.1000 56.168
77.1200 55.885
77.1400 56.775
77.1600 56.735
77.1800 56.533
77.2000 55.742
77.2200 55.572
77.2400 56.112
77.2600 55.652
77.2800 55.359
77.3000 56.417
77.3200 56.395
77.3400 57.410
77.3600 56.881
77.3800 56.570
77.4000 55.812
77.4200 55.744
77.4400 56.474
77.4600 55.749
77.4800 56.230
77.5000 56.589
77.5200 56.206
77.5400 56.058
77.5600 56.449
77.5800 56.547
77.6000 56.160
77.6200 56.838
77.6400 56.393
77.6600 56.524
77.6800 56.875
77.7000 57.040
77.7200 57.388
77.7400 56.544
77.7600 57.089
77.7800 55.956
77.8000 57.007
77.8200 56.234
77.8400 57.690
77.8600 56.130
77.8800 55.134
77.9000 57.025
77.9200 56.872
77.9400 57.994
77.9600 57.087
77.9800 56.786
78.0000 57.637
78.0200 55.892
78.0400 57.199
78.0600 56.297
78.0800 57.499
78.1000 57.217
78.1200 56.539
78.1400 57.662
78.1600 57.826
78.1800 56.935
78.2000 57.387
78.2200 58.684
78.2400 57.860
78.2600 56.121
78.2800 56.265
78.3000 57.116
78.3200 57.721
78.3400 58.520
78.3600 57.599
78.3800 55.963
78.4000 56.663
78.4200 57.083
78.4400 57.233
78.4600 57.234
78.4800 56.832
78.5000 56.478
78.5200 57.620
78.5400 58.380
78.5600 56.830
78.5800 57.688
78.6000 58.230
78.6200 57.886
78.6400 57.861
78.6600 56.663
78.6800 57.785
78.7000 57.308
78.7200 57.156
78.7400 57.241
78.7600 58.177
78.7800 58.584
78.8000 57.689
78.8200 57.540
78.8400 57.287
78.8600 57.486
78.8800 58.410
78.9000 58.051
78.9200 57.878
78.9400 56.775
78.9600 57.767
78.9800 59.146
79.0000 58.446
79.0200 57.061
79.0400 56.858
79.0600 58.129
79.0800 59.455
79.1000 58.421
79.1200 58.581
79.1400 58.895
79.1600 57.723
79.1800 57.401
79.2000 59.002
79.2200 58.420
79.2400 59.330
79.2600 58.644
79.2800 59.411
79.3000 58.404
79.3200 59.330
79.3400 59.077
79.3600 58.714
79.3800 57.165
79.4000 57.475
79.4200 58.603
79.4400 58.464
79.4600 59.117
79.4800 59.488
79.5000 58.557
79.5200 57.613
79.5400 58.486
79.5600 58.053
79.5800 59.081
79.6000 58.869
79.6200 58.732
79.6400 59.101
79.6600 57.744
79.6800 57.626
79.7000 59.426
79.7200 59.504
79.7400 58.528
79.7600 58.262
79.7800 59.570
79.8000 59.048
79.8200 58.515
79.8400 57.617
79.8600 58.845
79.8800 59.785
79.9000 59.942
79.9200 58.953
79.9400 59.253
79.9600 59.618
79.9800 60.242
80.0000 59.285
