'Id: "" Comment: "" Operator: "Lab Manager" Anode: "Cu" Scantype: "Coupled TwoTheta/Theta" TimePerStep: "113.4655" X: "9999" Y: "9999" Z: "-2.700037" 
20.0000 8.070
20.0200 8.143
20.0400 8.472
20.0600 8.371
20.0800 8.076
20.1000 8.483
20.1200 8.376
20.1400 8.449
20.1600 8.010
20.1800 8.790
20.2000 8.420
20.2200 8.396
20.2400 8.391
20.2600 8.383
20.2800 8.299
20.3000 8.385
20.3200 8.322
20.3400 8.581
20.3600 8.623
20.3800 8.609
20.4000 7.995
20.4200 8.800
20.4400 8.677
20.4600 8.789
20.4800 8.802
20.5000 8.860
20.5200 8.511
20.5400 8.966
20.5600 8.648
20.5800 8.696
20.6000 8.354
20.6200 8.996
20.6400 8.699
20.6600 8.567
20.6800 8.677
20.7000 8.598
20.7200 8.244
20.7400 8.829
20.7600 8.820
20.7800 9.060
20.8000 8.912
20.8200 8.416
20.8400 8.623
20.8600 8.818
20.8800 8.529
20.9000 8.631
20.9200 8.607
20.9400 8.663
20.9600 8.784
20.9800 8.924
21.0000 9.017
21.0200 9.024
21.0400 8.991
21.0600 9.095
21.0800 9.340
21.1000 8.774
21.1200 8.492
21.1400 9.060
21.1600 8.808
21.1800 8.958
21.2000 8.944
21.2200 8.759
21.2400 8.971
21.2600 9.547
21.2800 9.126
21.3000 9.346
21.3200 8.998
21.3400 9.177
21.3600 9.079
21.3800 9.125
21.4000 9.116
21.4200 9.181
21.4400 9.222
21.4600 9.353
21.4800 9.327
21.5000 9.620
21.5200 9.035
21.5400 9.601
21.5600 9.428
21.5800 9.455
21.6000 9.516
21.6200 9.452
21.6400 9.514
21.6600 9.668
21.6800 8.966
21.7000 9.385
21.7200 9.022
21.7400 8.758
21.7600 9.488
21.7800 9.603
21.8000 9.713
21.8200 9.106
21.8400 9.208
21.8600 9.315
21.8800 9.490
21.9000 9.115
21.9200 9.229
21.9400 9.417
21.9600 9.845
21.9800 9.186
22.0000 9.060
22.0200 8.907
22.0400 9.777
22.0600 9.408
22.0800 9.558
22.1000 10.081
22.1200 9.711
22.1400 10.026
22.1600 9.661
22.1800 9.497
22.2000 9.664
22.2200 9.612
22.2400 9.615
22.2600 9.941
22.2800 9.761
22.3000 9.895
22.3200 9.834
22.3400 9.704
22.3600 10.166
22.3800 10.016
22.4000 9.748
22.4200 9.963
22.4400 9.719
22.4600 10.407
22.4800 9.716
22.5000 9.852
22.5200 9.486
22.5400 9.626
22.5600 9.899
22.5800 9.773
22.6000 9.733
22.6200 10.077
22.6400 10.327
22.6600 10.153
22.6800 10.641
22.7000 10.171
22.7200 10.097
22.7400 10.133
22.7600 9.964
22.7800 10.097
22.8000 10.294
22.8200 10.052
22.8400 9.874
22.8600 10.133
22.8800 10.181
22.9000 10.073
22.9200 10.377
22.9400 10.340
22.9600 10.289
22.9800 10.206
23.0000 9.763
23.0200 10.308
23.0400 10.802
23.0600 10.286
23.0800 10.521
23.1000 10.609
23.1200 10.398
23.1400 10.038
23.1600 10.844
23.1800 10.363
23.2000 10.467
23.2200 10.445
23.2400 10.315
23.2600 10.837
23.2800 10.308
23.3000 10.055
23.3200 10.175
23.3400 10.290
23.3600 10.433
23.3800 10.289
23.4000 10.880
23.4200 10.400
23.4400 10.263
23.4600 10.536
23.4800 10.768
23.5000 10.870
23.5200 9.971
23.5400 10.818
23.5600 11.197
23.5800 10.385
23.6000 10.161
23.6200 10.909
23.6400 10.701
23.6600 11.165
23.6800 10.761
23.7000 10.740
23.7200 10.701
23.7400 11.284
23.7600 10.901
23.7800 10.310
23.8000 10.473
23.8200 11.329
23.8400 10.775
23.8600 10.385
23.8800 10.923
23.9000 10.884
23.9200 11.148
23.9400 11.380
23.9600 10.447
23.9800 10.672
24.0000 10.776
24.0200 11.369
24.0400 11.102
24.0600 11.189
24.0800 11.068
24.1000 11.251
24.1200 11.109
24.1400 11.402
24.1600 11.893
24.1800 11.177
24.2000 11.265
24.2200 11.247
24.2400 10.976
24.2600 11.431
24.2800 11.136
24.3000 12.010
24.3200 11.517
24.3400 11.609
24.3600 11.216
24.3800 11.200
24.4000 11.156
24.4200 11.364
24.4400 11.251
24.4600 12.040
24.4800 11.008
24.5000 11.142
24.5200 11.563
24.5400 11.331
24.5600 11.708
24.5800 11.858
24.6000 11.218
24.6200 11.420
24.6400 11.757
24.6600 11.462
24.6800 11.464
24.7000 11.482
24.7200 11.354
24.7400 11.167
24.7600 11.422
24.7800 11.527
24.8000 11.284
24.8200 11.271
24.8400 11.378
24.8600 11.580
24.8800 11.157
24.9000 12.117
24.9200 11.794
24.9400 11.929
24.9600 11.589
24.9800 11.340
25.0000 11.864
25.0200 11.813
25.0400 11.525
25.0600 11.461
25.0800 11.530
25.1000 11.968
25.1200 11.655
25.1400 12.084
25.1600 11.537
25.1800 11.796
25.2000 11.795
25.2200 12.381
25.2400 12.181
25.2600 11.713
25.2800 11.765
25.3000 11.601
25.3200 11.839
25.3400 11.904
25.3600 12.342
25.3800 12.621
25.4000 12.461
25.4200 12.231
25.4400 12.295
25.4600 12.201
25.4800 11.692
25.5000 11.679
25.5200 12.531
25.5400 12.060
25.5600 12.042
25.5800 12.305
25.6000 11.851
25.6200 12.412
25.6400 12.074
25.6600 12.006
25.6800 12.160
25.7000 11.477
25.7200 12.193
25.7400 11.992
25.7600 12.355
25.7800 12.357
25.8000 12.460
25.8200 12.662
25.8400 12.344
25.8600 12.032
25.8800 12.832
25.9000 12.338
25.9200 12.286
25.9400 12.405
25.9600 12.302
25.9800 12.559
26.0000 12.761
26.0200 13.090
26.0400 12.492
26.0600 12.896
26.0800 13.087
26.1000 12.398
26.1200 12.454
26.1400 12.411
26.1600 12.393
26.1800 13.107
26.2000 12.306
26.2200 12.196
26.2400 13.160
26.2600 12.904
26.2800 13.246
26.3000 12.809
26.3200 12.499
26.3400 12.958
26.3600 12.639
26.3800 13.060
26.4000 12.543
26.4200 12.770
26.4400 12.826
26.4600 13.149
26.4800 13.347
26.5000 13.036
26.5200 12.850
26.5400 12.631
26.5600 12.705
26.5800 12.946
26.6000 13.039
26.6200 13.490
26.6400 13.011
26.6600 13.456
26.6800 13.199
26.7000 13.629
26.7200 13.142
26.7400 13.539
26.7600 12.950
26.7800 13.016
26.8000 13.065
26.8200 13.276
26.8400 13.634
26.8600 13.192
26.8800 13.028
26.9000 13.802
26.9200 13.271
26.9400 13.166
26.9600 13.371
26.9800 12.890
27.0000 12.704
27.0200 12.927
27.0400 12.986
27.0600 13.318
27.0800 13.147
27.1000 13.800
27.1200 13.387
27.1400 14.085
27.1600 13.518
27.1800 13.516
27.2000 13.362
27.2200 13.529
27.2400 13.648
27.2600 13.529
27.2800 14.175
27.3000 14.021
27.3200 13.424
27.3400 13.962
27.3600 13.519
27.3800 13.395
27.4000 13.727
27.4200 13.858
27.4400 14.030
27.4600 13.166
27.4800 13.338
27.5000 14.375
27.5200 13.718
27.5400 14.079
27.5600 13.603
27.5800 14.360
27.6000 14.370
27.6200 14.095
27.6400 14.063
27.6600 14.616
27.6800 14.087
27.7000 12.987
27.7200 13.706
27.7400 13.664
27.7600 14.112
27.7800 13.873
27.8000 14.167
27.8200 13.930
27.8400 14.330
27.8600 13.989
27.8800 14.157
27.9000 14.093
27.9200 13.841
27.9400 13.539
27.9600 13.779
27.9800 14.056
28.0000 14.237
28.0200 14.836
28.0400 14.383
28.0600 14.452
28.0800 14.358
28.1000 14.668
28.1200 14.525
28.1400 14.250
28.1600 14.357
28.1800 13.811
28.2000 14.384
28.2200 14.271
28.2400 14.211
28.2600 14.577
28.2800 14.745
28.3000 14.182
28.3200 14.679
28.3400 14.650
28.3600 14.928
28.3800 15.422
28.4000 14.635
28.4200 14.467
28.4400 14.789
28.4600 14.798
28.4800 14.866
28.5000 14.700
28.5200 14.759
28.5400 14.866
28.5600 15.026
28.5800 14.747
28.6000 14.458
28.6200 14.250
28.6400 15.076
28.6600 14.445
28.6800 14.973
28.7000 15.033
28.7200 15.130
28.7400 14.824
28.7600 15.208
28.7800 15.229
28.8000 14.880
28.8200 15.825
28.8400 14.831
28.8600 15.378
28.8800 14.629
28.9000 15.037
28.9200 15.241
28.9400 15.267
28.9600 14.952
28.9800 14.999
29.0000 15.543
29.0200 15.594
29.0400 15.098
29.0600 14.806
29.0800 15.251
29.1000 14.481
29.1200 14.835
29.1400 15.826
29.1600 15.292
29.1800 15.373
29.2000 15.403
29.2200 15.529
29.2400 15.889
29.2600 15.417
29.2800 15.592
29.3000 15.315
29.3200 15.187
29.3400 16.029
29.3600 15.351
29.3800 15.634
29.4000 15.296
29.4200 15.171
29.4400 15.581
29.4600 15.848
29.4800 15.924
29.5000 15.697
29.5200 15.154
29.5400 15.530
29.5600 15.036
29.5800 15.539
29.6000 16.053
29.6200 15.608
29.6400 15.844
29.6600 15.994
29.6800 15.932
29.7000 16.122
29.7200 16.254
29.7400 16.416
29.7600 16.277
29.7800 16.581
29.8000 16.320
29.8200 16.320
29.8400 16.448
29.8600 16.287
29.8800 16.138
29.9000 16.269
29.9200 15.969
29.9400 16.438
29.9600 16.932
29.9800 16.812
30.0000 16.311
30.0200 16.503
30.0400 16.370
30.0600 16.066
30.0800 15.730
30.1000 15.944
30.1200 15.944
30.1400 16.306
30.1600 16.851
30.1800 15.806
30.2000 16.489
30.2200 16.509
30.2400 15.954
30.2600 16.521
30.2800 16.113
30.3000 16.094
30.3200 16.686
30.3400 16.900
30.3600 16.560
30.3800 16.057
30.4000 16.202
30.4200 17.110
30.4400 17.110
30.4600 16.337
30.4800 16.249
30.5000 16.482
30.5200 16.991
30.5400 16.143
30.5600 16.889
30.5800 16.426
30.6000 16.538
30.6200 16.266
30.6400 16.688
30.6600 17.080
30.6800 17.506
30.7000 16.428
30.7200 16.939
30.7400 16.953
30.7600 17.284
30.7800 17.200
30.8000 16.991
30.8200 16.419
30.8400 16.556
30.8600 17.050
30.8800 16.026
30.9000 17.566
30.9200 17.176
30.9400 17.396
30.9600 17.712
30.9800 17.434
31.0000 16.975
31.0200 17.017
31.0400 17.320
31.0600 17.175
31.0800 16.241
31.1000 17.572
31.1200 17.394
31.1400 17.252
31.1600 17.245
31.1800 17.524
31.2000 17.014
31.2200 17.433
31.2400 17.571
31.2600 17.148
31.2800 17.596
31.3000 17.737
31.3200 17.857
31.3400 17.096
31.3600 17.188
31.3800 17.702
31.4000 17.819
31.4200 17.077
31.4400 17.120
31.4600 17.399
31.4800 18.293
31.5000 17.153
31.5200 17.455
31.5400 17.854
31.5600 17.851
31.5800 17.866
31.6000 18.091
31.6200 17.930
31.6400 17.716
31.6600 18.445
31.6800 18.465
31.7000 17.975
31.7200 17.698
31.7400 18.136
31.7600 17.984
31.7800 17.955
31.8000 17.737
31.8200 18.298
31.8400 17.944
31.8600 17.736
31.8800 18.454
31.9000 18.399
31.9200 18.060
31.9400 18.099
31.9600 17.570
31.9800 17.977
32.0000 18.289
32.0200 18.294
32.0400 18.316
32.0600 18.477
32.0800 17.844
32.1000 17.767
32.1200 17.938
32.1400 17.514
32.1600 17.866
32.1800 18.498
32.2000 18.851
32.2200 18.722
32.2400 18.031
32.2600 18.138
32.2800 18.251
32.3000 18.325
32.3200 18.970
32.3400 18.983
32.3600 19.274
32.3800 18.775
32.4000 18.638
32.4200 18.722
32.4400 18.910
32.4600 18.247
32.4800 18.613
32.5000 18.500
32.5200 18.856
32.5400 18.810
32.5600 19.086
32.5800 19.204
32.6000 18.967
32.6200 18.742
32.6400 18.664
32.6600 18.560
32.6800 18.749
32.7000 19.314
32.7200 18.801
32.7400 18.940
32.7600 18.471
32.7800 18.617
32.8000 18.891
32.8200 19.185
32.8400 18.995
32.8600 18.912
32.8800 18.855
32.9000 19.156
32.9200 19.002
32.9400 19.537
32.9600 19.783
32.9800 18.877
33.0000 18.672
33.0200 19.288
33.0400 18.935
33.0600 19.152
33.0800 19.580
33.1000 18.982
33.1200 19.253
33.1400 20.004
33.1600 19.452
33.1800 19.079
33.2000 19.070
33.2200 18.965
33.2400 18.996
33.2600 19.712
33.2800 19.930
33.3000 19.509
33.3200 18.948
33.3400 19.057
33.3600 19.380
33.3800 19.172
33.4000 19.399
33.4200 20.146
33.4400 19.503
33.4600 19.762
33.4800 19.335
33.5000 19.069
33.5200 19.277
33.5400 19.721
33.5600 19.465
33.5800 19.731
33.6000 20.307
33.6200 19.765
33.6400 20.092
33.6600 20.912
33.6800 20.157
33.7000 20.327
33.7200 20.076
33.7400 19.424
33.7600 20.411
33.7800 20.047
33.8000 19.772
33.8200 20.057
33.8400 20.023
33.8600 19.610
33.8800 20.103
33.9000 20.019
33.9200 19.775
33.9400 20.619
33.9600 20.023
33.9800 20.500
34.0000 20.152
34.0200 20.419
34.0400 20.044
34.0600 20.258
34.0800 20.481
34.1000 20.638
34.1200 20.340
34.1400 19.756
34.1600 20.391
34.1800 20.547
34.2000 20.579
34.2200 20.696
34.2400 21.119
34.2600 20.466
34.2800 20.660
34.3000 20.280
34.3200 20.520
34.3400 20.842
34.3600 20.380
34.3800 20.253
34.4000 21.365
34.4200 20.652
34.4400 20.848
34.4600 20.115
34.4800 20.971
34.5000 20.455
34.5200 20.345
34.5400 21.709
34.5600 20.892
34.5800 21.004
34.6000 20.907
34.6200 21.290
34.6400 21.317
34.6600 21.040
34.6800 20.842
34.7000 21.365
34.7200 21.585
34.7400 21.556
34.7600 21.113
34.7800 20.767
34.8000 21.030
34.8200 20.925
34.8400 21.314
34.8600 20.648
34.8800 21.504
34.9000 21.213
34.9200 20.840
34.9400 22.267
34.9600 21.491
34.9800 21.671
35.0000 22.055
35.0200 22.299
35.0400 22.491
35.0600 22.578
35.0800 22.476
35.1000 22.696
35.1200 21.959
35.1400 21.871
35.1600 21.900
35.1800 21.515
35.2000 22.180
35.2200 21.396
35.2400 22.286
35.2600 21.506
35.2800 22.266
35.3000 21.946
35.3200 22.090
35.3400 21.674
35.3600 21.754
35.3800 22.123
35.4000 21.497
35.4200 21.319
35.4400 21.537
35.4600 21.989
35.4800 21.180
35.5000 21.432
35.5200 21.849
35.5400 22.045
35.5600 21.511
35.5800 21.735
35.6000 22.180
35.6200 21.358
35.6400 21.850
35.6600 22.336
35.6800 22.526
35.7000 22.475
35.7200 22.531
35.7400 22.346
35.7600 21.444
35.7800 21.175
35.8000 22.518
35.8200 21.923
35.8400 22.238
35.8600 22.326
35.8800 21.621
35.9000 22.223
35.9200 22.251
35.9400 22.393
35.9600 21.970
35.9800 22.085
36.0000 22.785
36.0200 22.492
36.0400 22.189
36.0600 22.444
36.0800 22.466
36.1000 22.397
36.1200 22.318
36.1400 22.778
36.1600 23.338
36.1800 22.615
36.2000 22.583
36.2200 22.494
36.2400 22.710
36.2600 22.303
36.2800 22.856
36.3000 22.425
36.3200 22.263
36.3400 23.022
36.3600 22.613
36.3800 23.159
36.4000 23.068
36.4200 22.548
36.4400 23.011
36.4600 22.853
36.4800 23.081
36.5000 23.179
36.5200 22.964
36.5400 22.635
36.5600 23.500
36.5800 23.312
36.6000 23.402
36.6200 23.666
36.6400 23.813
36.6600 24.236
36.6800 23.852
36.7000 23.828
36.7200 24.068
36.7400 23.842
36.7600 23.553
36.7800 23.579
36.8000 23.618
36.8200 23.676
36.8400 23.676
36.8600 23.935
36.8800 23.700
36.9000 24.270
36.9200 24.679
36.9400 24.140
36.9600 23.461
36.9800 23.618
37.0000 24.295
37.0200 24.259
37.0400 24.498
37.0600 23.851
37.0800 24.400
37.1000 23.993
37.1200 24.495
37.1400 24.265
37.1600 24.490
37.1800 24.672
37.2000 24.586
37.2200 24.546
37.2400 24.875
37.2600 24.272
37.2800 24.067
37.3000 25.089
37.3200 24.609
37.3400 25.100
37.3600 24.571
37.3800 24.783
37.4000 24.207
37.4200 24.894
37.4400 24.664
37.4600 25.343
37.4800 24.259
37.5000 25.037
37.5200 24.767
37.5400 25.397
37.5600 25.201
37.5800 25.672
37.6000 25.733
37.6200 24.624
37.6400 25.410
37.6600 25.574
37.6800 25.945
37.7000 26.059
37.7200 25.236
37.7400 25.697
37.7600 25.983
37.7800 26.460
37.8000 25.600
37.8200 25.835
37.8400 25.784
37.8600 24.916
37.8800 25.882
37.9000 26.032
37.9200 26.356
37.9400 25.727
37.9600 25.790
37.9800 25.930
38.0000 25.699
38.0200 26.161
38.0400 25.789
38.0600 26.785
38.0800 25.976
38.1000 25.370
38.1200 26.283
38.1400 26.309
38.1600 26.586
38.1800 26.085
38.2000 26.778
38.2200 26.307
38.2400 25.671
38.2600 25.880
38.2800 26.366
38.3000 26.218
38.3200 26.163
38.3400 25.777
38.3600 27.078
38.3800 26.689
38.4000 26.486
38.4200 26.284
38.4400 26.644
38.4600 26.567
38.4800 26.703
38.5000 26.915
38.5200 27.167
38.5400 27.058
38.5600 26.379
38.5800 27.003
38.6000 26.186
38.6200 26.578
38.6400 26.539
38.6600 27.791
38.6800 27.381
38.7000 27.185
38.7200 27.221
38.7400 26.630
38.7600 26.292
38.7800 26.832
38.8000 26.335
38.8200 25.830
38.8400 27.569
38.8600 27.369
38.8800 26.884
38.9000 27.107
38.9200 27.187
38.9400 27.261
38.9600 27.751
38.9800 27.136
39.0000 27.367
39.0200 27.149
39.0400 27.308
39.0600 27.277
39.0800 26.769
39.1000 27.533
39.1200 28.716
39.1400 28.308
39.1600 27.489
39.1800 27.872
39.2000 27.773
39.2200 27.461
39.2400 27.606
39.2600 27.226
39.2800 27.119
39.3000 27.084
39.3200 27.669
39.3400 27.317
39.3600 28.383
39.3800 27.884
39.4000 27.317
39.4200 27.052
39.4400 28.512
39.4600 27.351
39.4800 27.889
39.5000 28.196
39.5200 29.062
39.5400 28.275
39.5600 28.012
39.5800 27.463
39.6000 27.949
39.6200 28.795
39.6400 28.130
39.6600 27.959
39.6800 28.703
39.7000 28.075
39.7200 28.335
39.7400 28.365
39.7600 28.223
39.7800 27.808
39.8000 28.650
39.8200 28.634
39.8400 29.178
39.8600 28.444
39.8800 27.824
39.9000 28.227
39.9200 28.034
39.9400 28.368
39.9600 28.052
39.9800 27.992
40.0000 28.005
40.0200 28.629
40.0400 27.704
40.0600 28.138
40.0800 28.220
40.1000 28.608
40.1200 28.274
40.1400 28.701
40.1600 29.491
40.1800 28.615
40.2000 28.801
40.2200 28.979
40.2400 28.646
40.2600 28.748
40.2800 28.433
40.3000 29.375
40.3200 28.535
40.3400 29.192
40.3600 29.274
40.3800 28.477
40.4000 28.187
40.4200 28.151
40.4400 28.835
40.4600 28.928
40.4800 28.770
40.5000 28.330
40.5200 29.367
40.5400 28.729
40.5600 28.843
40.5800 28.465
40.6000 28.777
40.6200 29.456
40.6400 29.103
40.6600 28.901
40.6800 29.588
40.7000 29.252
40.7200 28.447
40.7400 28.616
40.7600 29.229
40.7800 29.941
40.8000 29.077
40.8200 29.090
40.8400 30.094
40.8600 29.448
40.8800 28.769
40.9000 28.727
40.9200 29.102
40.9400 29.227
40.9600 29.665
40.9800 28.968
41.0000 29.674
41.0200 29.045
41.0400 30.156
41.0600 29.867
41.0800 29.082
41.1000 29.903
41.1200 30.530
41.1400 29.685
41.1600 29.446
41.1800 29.224
41.2000 29.391
41.2200 29.450
41.2400 29.239
41.2600 29.164
41.2800 29.791
41.3000 30.213
41.3200 30.391
41.3400 29.707
41.3600 29.629
41.3800 29.818
41.4000 28.691
41.4200 29.762
41.4400 30.021
41.4600 29.361
41.4800 29.782
41.5000 30.111
41.5200 30.399
41.5400 30.183
41.5600 30.508
41.5800 29.847
41.6000 29.234
41.6200 29.938
41.6400 30.174
41.6600 30.161
41.6800 29.615
41.7000 30.032
41.7200 29.700
41.7400 29.670
41.7600 29.521
41.7800 30.598
41.8000 29.881
41.8200 29.305
41.8400 29.481
41.8600 30.884
41.8800 30.407
41.9000 29.673
41.9200 29.829
41.9400 30.538
41.9600 30.453
41.9800 29.753
42.0000 29.788
42.0200 30.620
42.0400 30.042
42.0600 30.037
42.0800 29.478
42.1000 30.644
42.1200 30.097
42.1400 29.618
42.1600 29.908
42.1800 30.701
42.2000 30.522
42.2200 30.789
42.2400 30.912
42.2600 31.086
42.2800 30.315
42.3000 30.532
42.3200 30.436
42.3400 30.652
42.3600 30.933
42.3800 30.059
42.4000 30.610
42.4200 31.316
42.4400 30.905
42.4600 31.061
42.4800 31.150
42.5000 30.696
42.5200 31.121
42.5400 31.548
42.5600 32.136
42.5800 32.021
42.6000 30.975
42.6200 30.736
42.6400 31.042
42.6600 31.725
42.6800 32.371
42.7000 31.341
42.7200 31.501
42.7400 31.062
42.7600 32.031
42.7800 31.303
42.8000 31.241
42.8200 31.326
42.8400 31.047
42.8600 30.732
42.8800 30.891
42.9000 30.926
42.9200 30.084
42.9400 30.456
42.9600 31.206
42.9800 31.175
43.0000 31.805
43.0200 30.558
43.0400 31.294
43.0600 31.791
43.0800 31.147
43.1000 32.446
43.1200 32.051
43.1400 32.230
43.1600 31.663
43.1800 31.510
43.2000 31.426
43.2200 31.566
43.2400 31.482
43.2600 31.506
43.2800 31.711
43.3000 31.437
43.3200 31.584
43.3400 31.860
43.3600 32.391
43.3800 31.918
43.4000 30.868
43.4200 30.944
43.4400 30.623
43.4600 30.790
43.4800 31.971
43.5000 31.884
43.5200 31.527
43.5400 31.266
43.5600 31.856
43.5800 32.510
43.6000 32.725
43.6200 32.635
43.6400 32.750
43.6600 32.432
43.6800 32.830
43.7000 32.902
43.7200 32.486
43.7400 32.103
43.7600 32.316
43.7800 34.052
43.8000 32.696
43.8200 32.953
43.8400 33.526
43.8600 33.413
43.8800 34.198
43.9000 33.648
43.9200 33.881
43.9400 34.210
43.9600 34.789
43.9800 35.725
44.0000 35.242
44.0200 37.310
44.0400 38.679
44.0600 43.527
44.0800 46.687
44.1000 53.327
44.1200 58.427
44.1400 63.299
44.1600 64.715
44.1800 64.976
44.2000 62.292
44.2200 58.893
44.2400 55.429
44.2600 55.526
44.2800 53.404
44.3000 50.188
44.3200 46.802
44.3400 42.798
44.3600 39.627
44.3800 38.663
44.4000 37.261
44.4200 35.828
44.4400 34.892
44.4600 34.648
44.4800 34.494
44.5000 33.226
44.5200 32.970
44.5400 32.737
44.5600 32.302
44.5800 32.859
44.6000 32.876
44.6200 32.335
44.6400 32.008
44.6600 32.598
44.6800 32.967
44.7000 33.002
44.7200 32.401
44.7400 33.619
44.7600 32.729
44.7800 33.023
44.8000 34.513
44.8200 34.724
44.8400 37.675
44.8600 41.916
44.8800 42.887
44.9000 41.812
44.9200 38.516
44.9400 39.088
44.9600 40.195
44.9800 41.540
45.0000 42.336
45.0200 41.184
45.0400 39.629
45.0600 39.466
45.0800 40.318
45.1000 38.425
45.1200 38.918
45.1400 39.682
45.1600 38.704
45.1800 39.011
45.2000 40.139
45.2200 38.842
45.2400 38.505
45.2600 37.636
45.2800 38.480
45.3000 37.657
45.3200 37.158
45.3400 37.397
45.3600 36.724
45.3800 35.577
45.4000 35.487
45.4200 35.931
45.4400 35.696
45.4600 34.566
45.4800 35.055
45.5000 34.023
45.5200 33.457
45.5400 33.921
45.5600 33.673
45.5800 33.350
45.6000 32.770
45.6200 32.658
45.6400 33.222
45.6600 32.782
45.6800 32.845
45.7000 32.784
45.7200 32.365
45.7400 32.856
45.7600 33.467
45.7800 33.446
45.8000 32.536
45.8200 33.216
45.8400 31.891
45.8600 33.040
45.8800 33.019
45.9000 33.606
45.9200 33.265
45.9400 33.078
45.9600 33.543
45.9800 33.644
46.0000 33.144
46.0200 32.497
46.0400 32.758
46.0600 33.035
46.0800 32.535
46.1000 32.568
46.1200 33.506
46.1400 32.679
46.1600 33.744
46.1800 33.192
46.2000 32.520
46.2200 33.596
46.2400 33.423
46.2600 32.872
46.2800 33.430
46.3000 33.675
46.3200 33.331
46.3400 32.548
46.3600 33.961
46.3800 33.307
46.4000 33.303
46.4200 33.413
46.4400 34.370
46.4600 33.228
46.4800 33.018
46.5000 33.100
46.5200 34.020
46.5400 32.485
46.5600 32.880
46.5800 32.761
46.6000 33.182
46.6200 32.123
46.6400 34.364
46.6600 33.322
46.6800 33.412
46.7000 33.755
46.7200 33.159
46.7400 32.813
46.7600 33.697
46.7800 33.395
46.8000 34.158
46.8200 33.869
46.8400 33.349
46.8600 33.668
46.8800 33.686
46.9000 33.838
46.9200 33.148
46.9400 33.391
46.9600 33.443
46.9800 33.471
47.0000 33.611
47.0200 34.341
47.0400 33.964
47.0600 33.381
47.0800 33.056
47.1000 33.934
47.1200 33.629
47.1400 33.903
47.1600 33.080
47.1800 34.240
47.2000 33.605
47.2200 34.176
47.2400 33.895
47.2600 33.267
47.2800 33.594
47.3000 34.087
47.3200 33.457
47.3400 33.723
47.3600 34.103
47.3800 33.288
47.4000 34.383
47.4200 34.557
47.4400 34.653
47.4600 34.330
47.4800 34.054
47.5000 34.311
47.5200 33.981
47.5400 34.883
47.5600 33.328
47.5800 34.637
47.6000 34.489
47.6200 33.645
47.6400 33.590
47.6600 34.413
47.6800 34.382
47.7000 33.939
47.7200 34.505
47.7400 33.777
47.7600 33.271
47.7800 33.643
47.8000 34.309
47.8200 33.768
47.8400 34.662
47.8600 33.946
47.8800 34.345
47.9000 34.641
47.9200 33.828
47.9400 34.614
47.9600 35.252
47.9800 34.192
48.0000 34.369
48.0200 33.616
48.0400 34.368
48.0600 34.667
48.0800 34.318
48.1000 34.065
48.1200 33.709
48.1400 34.136
48.1600 34.536
48.1800 34.104
48.2000 34.262
48.2200 35.069
48.2400 33.910
48.2600 33.841
48.2800 34.639
48.3000 35.147
48.3200 34.168
48.3400 34.752
48.3600 35.104
48.3800 34.554
48.4000 34.529
48.4200 34.703
48.4400 34.123
48.4600 34.477
48.4800 34.472
48.5000 34.943
48.5200 34.058
48.5400 34.448
48.5600 34.354
48.5800 34.744
48.6000 34.577
48.6200 35.412
48.6400 35.057
48.6600 34.181
48.6800 34.321
48.7000 34.283
48.7200 34.734
48.7400 34.108
48.7600 35.495
48.7800 34.789
48.8000 35.703
48.8200 34.983
48.8400 34.336
48.8600 34.729
48.8800 35.521
48.9000 34.451
48.9200 34.123
48.9400 35.118
48.9600 35.821
48.9800 34.719
49.0000 34.710
49.0200 35.366
49.0400 35.008
49.0600 35.562
49.0800 35.574
49.1000 35.010
49.1200 34.889
49.1400 34.726
49.1600 35.502
49.1800 35.315
49.2000 36.259
49.2200 35.057
49.2400 35.357
49.2600 36.158
49.2800 35.244
49.3000 36.343
49.3200 35.700
49.3400 36.355
49.3600 35.026
49.3800 34.838
49.4000 35.466
49.4200 35.809
49.4400 34.498
49.4600 35.194
49.4800 35.226
49.5000 35.393
49.5200 35.587
49.5400 35.679
49.5600 35.760
49.5800 35.276
49.6000 35.102
49.6200 35.773
49.6400 35.438
49.6600 35.619
49.6800 35.985
49.7000 35.876
49.7200 35.532
49.7400 35.569
49.7600 35.316
49.7800 35.430
49.8000 35.924
49.8200 36.039
49.8400 35.904
49.8600 35.851
49.8800 36.407
49.9000 36.484
49.9200 35.845
49.9400 35.828
49.9600 35.769
49.9800 36.564
50.0000 36.333
50.0200 36.177
50.0400 36.075
50.0600 35.894
50.0800 35.903
50.1000 36.430
50.1200 35.816
50.1400 35.767
50.1600 35.910
50.1800 36.160
50.2000 36.247
50.2200 36.571
50.2400 35.616
50.2600 37.002
50.2800 36.565
50.3000 36.533
50.3200 36.272
50.3400 36.840
50.3600 36.208
50.3800 36.507
50.4000 36.824
50.4200 36.856
50.4400 36.233
50.4600 36.632
50.4800 36.825
50.5000 36.500
50.5200 36.549
50.5400 36.951
50.5600 36.587
50.5800 36.763
50.6000 36.169
50.6200 36.910
50.6400 37.014
50.6600 36.461
50.6800 37.363
50.7000 37.138
50.7200 36.394
50.7400 36.777
50.7600 37.005
50.7800 36.744
50.8000 36.897
50.8200 38.074
50.8400 38.659
50.8600 36.819
50.8800 37.484
50.9000 37.207
50.9200 37.090
50.9400 36.944
50.9600 37.202
50.9800 37.090
51.0000 37.115
51.0200 37.997
51.0400 37.338
51.0600 36.822
51.0800 37.437
51.1000 37.328
51.1200 38.636
51.1400 37.918
51.1600 37.768
51.1800 37.418
51.2000 38.298
51.2200 36.907
51.2400 37.236
51.2600 37.188
51.2800 37.915
51.3000 38.466
51.3200 36.954
51.3400 37.798
51.3600 37.825
51.3800 38.228
51.4000 38.972
51.4200 37.467
51.4400 37.504
51.4600 36.888
51.4800 37.635
51.5000 37.680
51.5200 37.843
51.5400 38.160
51.5600 38.120
51.5800 37.356
51.6000 37.611
51.6200 37.931
51.6400 37.957
51.6600 37.149
51.6800 37.128
51.7000 37.865
51.7200 37.254
51.7400 37.616
51.7600 38.135
51.7800 37.556
51.8000 38.624
51.8200 38.600
51.8400 37.702
51.8600 38.406
51.8800 38.939
51.9000 37.724
51.9200 38.100
51.9400 37.760
51.9600 38.272
51.9800 37.909
52.0000 37.586
52.0200 37.649
52.0400 37.275
52.0600 37.924
52.0800 38.191
52.1000 38.963
52.1200 36.693
52.1400 38.665
52.1600 38.772
52.1800 38.592
52.2000 37.484
52.2200 38.063
52.2400 38.013
52.2600 38.158
52.2800 38.541
52.3000 38.191
52.3200 37.786
52.3400 37.774
52.3600 38.277
52.3800 38.922
52.4000 37.861
52.4200 38.163
52.4400 38.098
52.4600 37.379
52.4800 38.209
52.5000 37.516
52.5200 38.239
52.5400 38.237
52.5600 38.418
52.5800 38.780
52.6000 37.745
52.6200 38.005
52.6400 37.226
52.6600 38.976
52.6800 38.522
52.7000 39.208
52.7200 38.249
52.7400 38.485
52.7600 38.964
52.7800 39.270
52.8000 38.888
52.8200 37.780
52.8400 38.309
52.8600 38.885
52.8800 38.196
52.9000 39.611
52.9200 38.618
52.9400 39.159
52.9600 38.924
52.9800 38.065
53.0000 39.142
53.0200 38.934
53.0400 38.747
53.0600 38.189
53.0800 37.855
53.1000 38.179
53.1200 38.215
53.1400 38.999
53.1600 39.358
53.1800 38.450
53.2000 38.661
53.2200 38.759
53.2400 38.610
53.2600 38.612
53.2800 38.849
53.3000 38.440
53.3200 38.556
53.3400 38.055
53.3600 38.137
53.3800 38.132
53.4000 38.664
53.4200 38.563
53.4400 39.710
53.4600 39.354
53.4800 38.398
53.5000 39.219
53.5200 38.009
53.5400 38.068
53.5600 38.561
53.5800 39.665
53.6000 39.417
53.6200 38.835
53.6400 39.030
53.6600 39.339
53.6800 38.295
53.7000 37.956
53.7200 39.254
53.7400 39.425
53.7600 38.918
53.7800 38.631
53.8000 38.908
53.8200 39.431
53.8400 38.198
53.8600 39.036
53.8800 39.171
53.9000 39.037
53.9200 39.612
53.9400 39.723
53.9600 39.744
53.9800 40.201
54.0000 39.332
54.0200 39.093
54.0400 39.568
54.0600 39.285
54.0800 38.632
54.1000 39.660
54.1200 39.201
54.1400 38.087
54.1600 38.695
54.1800 38.487
54.2000 38.934
54.2200 39.673
54.2400 38.987
54.2600 39.150
54.2800 39.772
54.3000 39.370
54.3200 39.723
54.3400 39.933
54.3600 39.477
54.3800 39.161
54.4000 39.570
54.4200 39.320
54.4400 39.660
54.4600 40.244
54.4800 39.460
54.5000 39.508
54.5200 38.741
54.5400 39.421
54.5600 39.576
54.5800 39.365
54.6000 38.464
54.6200 40.030
54.6400 39.995
54.6600 40.252
54.6800 39.627
54.7000 40.475
54.7200 40.188
54.7400 39.720
54.7600 40.008
54.7800 39.809
54.8000 39.786
54.8200 39.811
54.8400 39.632
54.8600 39.166
54.8800 38.857
54.9000 39.994
54.9200 40.520
54.9400 40.516
54.9600 39.645
54.9800 39.066
55.0000 39.340
55.0200 39.946
55.0400 39.241
55.0600 38.947
55.0800 39.477
55.1000 39.917
55.1200 39.808
55.1400 39.822
55.1600 39.676
55.1800 40.170
55.2000 40.368
55.2200 39.426
55.2400 40.155
55.2600 40.822
55.2800 40.570
55.3000 39.952
55.3200 39.892
55.3400 40.161
55.3600 39.939
55.3800 41.040
55.4000 39.684
55.4200 40.460
55.4400 40.405
55.4600 40.003
55.4800 39.577
55.5000 40.709
55.5200 39.069
55.5400 40.827
55.5600 40.871
55.5800 41.912
55.6000 39.565
55.6200 40.621
55.6400 40.633
55.6600 40.075
55.6800 40.596
55.7000 41.082
55.7200 40.068
55.7400 39.711
55.7600 40.191
55.7800 40.647
55.8000 40.686
55.8200 40.425
55.8400 39.608
55.8600 40.362
55.8800 41.073
55.9000 41.226
55.9200 41.041
55.9400 40.949
55.9600 40.162
55.9800 40.137
56.0000 40.674
56.0200 40.036
56.0400 41.060
56.0600 40.590
56.0800 40.845
56.1000 40.630
56.1200 40.150
56.1400 40.413
56.1600 41.433
56.1800 41.380
56.2000 40.629
56.2200 41.463
56.2400 41.052
56.2600 41.029
56.2800 40.624
56.3000 41.583
56.3200 41.090
56.3400 40.935
56.3600 41.973
56.3800 41.233
56.4000 40.747
56.4200 42.501
56.4400 41.887
56.4600 41.003
56.4800 42.104
56.5000 41.949
56.5200 41.815
56.5400 40.471
56.5600 41.063
56.5800 41.227
56.6000 41.861
56.6200 41.645
56.6400 41.242
56.6600 41.094
56.6800 41.991
56.7000 42.381
56.7200 41.576
56.7400 41.750
56.7600 41.305
56.7800 42.498
56.8000 41.557
56.8200 41.003
56.8400 41.245
56.8600 42.548
56.8800 42.889
56.9000 42.369
56.9200 41.722
56.9400 41.328
56.9600 40.970
56.9800 41.420
57.0000 42.470
57.0200 42.774
57.0400 41.646
57.0600 41.713
57.0800 42.122
57.1000 41.806
57.1200 42.446
57.1400 42.524
57.1600 42.473
57.1800 42.786
57.2000 42.384
57.2200 43.660
57.2400 41.444
57.2600 41.804
57.2800 42.936
57.3000 43.033
57.3200 42.473
57.3400 42.809
57.3600 42.721
57.3800 41.701
57.4000 41.945
57.4200 42.442
57.4400 42.949
57.4600 42.824
57.4800 42.087
57.5000 42.512
57.5200 42.617
57.5400 42.957
57.5600 43.150
57.5800 42.641
57.6000 42.982
57.6200 43.093
57.6400 42.514
57.6600 42.080
57.6800 42.727
57.7000 42.078
57.7200 42.273
57.7400 42.602
57.7600 42.386
57.7800 43.896
57.8000 43.660
57.8200 43.454
57.8400 43.577
57.8600 42.523
57.8800 43.507
57.9000 43.506
57.9200 43.161
57.9400 43.254
57.9600 43.711
57.9800 43.620
58.0000 43.578
58.0200 44.210
58.0400 44.653
58.0600 44.637
58.0800 44.484
58.1000 44.493
58.1200 45.584
58.1400 45.278
58.1600 45.683
58.1800 45.615
58.2000 46.233
58.2200 46.843
58.2400 47.767
58.2600 47.593
58.2800 47.753
58.3000 48.331
58.3200 48.079
58.3400 47.933
58.3600 48.639
58.3800 48.585
58.4000 48.654
58.4200 49.329
58.4400 50.958
58.4600 50.370
58.4800 49.839
58.5000 49.924
58.5200 51.447
58.5400 50.957
58.5600 51.492
58.5800 51.597
58.6000 51.137
58.6200 50.976
58.6400 51.187
58.6600 51.602
58.6800 51.940
58.7000 51.081
58.7200 50.956
58.7400 50.741
58.7600 51.266
58.7800 51.111
58.8000 51.525
58.8200 51.196
58.8400 51.612
58.8600 51.198
58.8800 50.033
58.9000 50.911
58.9200 50.926
58.9400 49.879
58.9600 49.745
58.9800 49.630
59.0000 49.101
59.0200 48.642
59.0400 48.267
59.0600 47.185
59.0800 47.596
59.1000 46.258
59.1200 45.970
59.1400 47.134
59.1600 45.596
59.1800 45.349
59.2000 45.496
59.2200 46.373
59.2400 45.094
59.2600 44.351
59.2800 43.252
59.3000 44.387
59.3200 44.255
59.3400 44.202
59.3600 44.151
59.3800 43.607
59.4000 43.961
59.4200 43.430
59.4400 43.656
59.4600 44.173
59.4800 43.858
59.5000 42.906
59.5200 43.684
59.5400 44.190
59.5600 44.327
59.5800 44.529
59.6000 43.825
59.6200 44.179
59.6400 43.938
59.6600 43.871
59.6800 43.794
59.7000 44.221
59.7200 44.099
59.7400 44.827
59.7600 43.846
59.7800 45.064
59.8000 45.323
59.8200 45.012
59.8400 43.818
59.8600 44.189
59.8800 44.121
59.9000 43.604
59.9200 43.731
59.9400 43.640
59.9600 42.517
59.9800 43.740
60.0000 44.195
60.0200 43.283
60.0400 43.998
60.0600 44.367
60.0800 43.952
60.1000 43.972
60.1200 43.250
60.1400 44.264
60.1600 44.050
60.1800 44.513
60.2000 44.016
60.2200 44.457
60.2400 44.144
60.2600 44.200
60.2800 44.364
60.3000 43.478
60.3200 44.351
60.3400 45.387
60.3600 43.789
60.3800 44.926
60.4000 43.708
60.4200 43.736
60.4400 44.659
60.4600 43.911
60.4800 44.225
60.5000 44.437
60.5200 44.783
60.5400 45.085
60.5600 44.147
60.5800 43.821
60.6000 44.446
60.6200 44.986
60.6400 44.321
60.6600 43.432
60.6800 45.032
60.7000 46.214
60.7200 44.719
60.7400 43.704
60.7600 44.331
60.7800 44.434
60.8000 43.935
60.8200 45.279
60.8400 45.340
60.8600 44.031
60.8800 43.759
60.9000 43.944
60.9200 44.670
60.9400 44.578
60.9600 44.262
60.9800 44.005
61.0000 44.274
61.0200 44.360
61.0400 44.008
61.0600 44.024
61.0800 44.377
61.1000 44.351
61.1200 45.144
61.1400 44.797
61.1600 44.261
61.1800 44.743
61.2000 44.312
61.2200 45.151
61.2400 44.606
61.2600 43.997
61.2800 43.710
61.3000 45.059
61.3200 45.445
61.3400 44.182
61.3600 45.065
61.3800 45.894
61.4000 45.662
61.4200 44.766
61.4400 44.681
61.4600 43.945
61.4800 44.103
61.5000 44.000
61.5200 44.273
61.5400 44.666
61.5600 43.729
61.5800 44.936
61.6000 45.626
61.6200 45.216
61.6400 45.034
61.6600 44.965
61.6800 45.591
61.7000 44.248
61.7200 44.943
61.7400 45.536
61.7600 44.780
61.7800 44.781
61.8000 46.012
61.8200 46.248
61.8400 46.166
61.8600 45.038
61.8800 45.290
61.9000 45.731
61.9200 45.578
61.9400 45.651
61.9600 45.700
61.9800 45.443
62.0000 45.562
62.0200 45.892
62.0400 45.357
62.0600 45.060
62.0800 46.183
62.1000 46.049
62.1200 46.551
62.1400 45.802
62.1600 46.299
62.1800 45.730
62.2000 45.153
62.2200 45.526
62.2400 45.101
62.2600 45.381
62.2800 45.278
62.3000 45.410
62.3200 44.538
62.3400 45.484
62.3600 45.788
62.3800 45.322
62.4000 45.159
62.4200 44.871
62.4400 45.236
62.4600 46.361
62.4800 45.457
62.5000 46.076
62.5200 45.612
62.5400 45.456
62.5600 45.378
62.5800 46.273
62.6000 45.857
62.6200 45.551
62.6400 45.561
62.6600 45.877
62.6800 44.604
62.7000 45.504
62.7200 45.537
62.7400 46.363
62.7600 45.229
62.7800 46.053
62.8000 46.221
62.8200 45.567
62.8400 45.800
62.8600 45.547
62.8800 46.454
62.9000 46.556
62.9200 46.158
62.9400 45.309
62.9600 45.856
62.9800 44.973
63.0000 44.721
63.0200 45.134
63.0400 45.448
63.0600 45.894
63.0800 45.752
63.1000 46.221
63.1200 45.961
63.1400 45.312
63.1600 46.222
63.1800 45.748
63.2000 44.910
63.2200 45.503
63.2400 46.632
63.2600 45.951
63.2800 46.818
63.3000 47.542
63.3200 45.904
63.3400 45.853
63.3600 46.001
63.3800 46.500
63.4000 46.568
63.4200 46.827
63.4400 47.000
63.4600 46.055
63.4800 45.901
63.5000 45.519
63.5200 46.397
63.5400 46.201
63.5600 46.064
63.5800 45.001
63.6000 45.797
63.6200 46.611
63.6400 46.187
63.6600 45.962
63.6800 45.995
63.7000 46.940
63.7200 46.727
63.7400 46.953
63.7600 47.304
63.7800 46.466
63.8000 47.236
63.8200 47.837
63.8400 46.952
63.8600 46.797
63.8800 47.374
63.9000 46.889
63.9200 47.588
63.9400 47.340
63.9600 47.713
63.9800 46.387
64.0000 47.159
64.0200 47.529
64.0400 47.924
64.0600 46.555
64.0800 48.164
64.1000 48.814
64.1200 48.567
64.1400 49.188
64.1600 50.138
64.1800 51.113
64.2000 51.617
64.2200 50.473
64.2400 53.181
64.2600 54.738
64.2800 54.882
64.3000 54.403
64.3200 55.183
64.3400 56.034
64.3600 55.353
64.3800 56.304
64.4000 56.379
64.4200 54.661
64.4400 55.729
64.4600 55.129
64.4800 54.321
64.5000 53.907
64.5200 53.376
64.5400 52.837
64.5600 53.243
64.5800 51.621
64.6000 50.162
64.6200 50.082
64.6400 51.064
64.6600 49.928
64.6800 49.965
64.7000 49.250
64.7200 50.310
64.7400 48.707
64.7600 49.376
64.7800 48.207
64.8000 46.887
64.8200 47.618
64.8400 48.188
64.8600 48.669
64.8800 47.907
64.9000 46.925
64.9200 47.501
64.9400 46.927
64.9600 47.268
64.9800 47.649
65.0000 47.522
65.0200 47.071
65.0400 47.839
65.0600 47.307
65.0800 47.882
65.1000 46.887
65.1200 47.953
65.1400 48.111
65.1600 46.704
65.1800 47.838
65.2000 47.651
65.2200 47.926
65.2400 48.060
65.2600 47.233
65.2800 47.447
65.3000 47.552
65.3200 47.576
65.3400 46.372
65.3600 47.512
65.3800 48.296
65.4000 47.427
65.4200 47.196
65.4400 46.606
65.4600 46.622
65.4800 47.100
65.5000 46.959
65.5200 46.257
65.5400 47.144
65.5600 47.471
65.5800 47.427
65.6000 48.293
65.6200 47.360
65.6400 46.984
65.6600 48.226
65.6800 48.124
65.7000 47.278
65.7200 47.577
65.7400 48.325
65.7600 47.710
65.7800 49.008
65.8000 48.258
65.8200 49.327
65.8400 48.324
65.8600 48.483
65.8800 47.818
65.9000 48.223
65.9200 48.814
65.9400 47.997
65.9600 48.511
65.9800 48.393
66.0000 47.667
66.0200 48.810
66.0400 48.968
66.0600 47.212
66.0800 47.634
66.1000 47.789
66.1200 48.187
66.1400 48.862
66.1600 49.317
66.1800 48.538
66.2000 48.212
66.2200 47.899
66.2400 47.778
66.2600 49.037
66.2800 48.268
66.3000 48.511
66.3200 47.333
66.3400 48.266
66.3600 48.574
66.3800 48.134
66.4000 48.005
66.4200 48.381
66.4400 48.521
66.4600 48.561
66.4800 48.950
66.5000 49.163
66.5200 48.381
66.5400 48.920
66.5600 49.254
66.5800 48.719
66.6000 48.335
66.6200 47.949
66.6400 48.351
66.6600 48.606
66.6800 48.299
66.7000 48.832
66.7200 49.641
66.7400 49.356
66.7600 48.208
66.7800 48.803
66.8000 48.276
66.8200 48.710
66.8400 48.150
66.8600 47.151
66.8800 48.822
66.9000 48.848
66.9200 48.018
66.9400 49.539
66.9600 49.963
66.9800 49.317
67.0000 49.386
67.0200 48.632
67.0400 48.996
67.0600 49.262
67.0800 49.320
67.1000 49.424
67.1200 48.996
67.1400 49.562
67.1600 49.005
67.1800 48.286
67.2000 48.361
67.2200 48.889
67.2400 49.590
67.2600 49.227
67.2800 50.011
67.3000 48.706
67.3200 48.952
67.3400 49.050
67.3600 50.152
67.3800 49.732
67.4000 49.624
67.4200 49.799
67.4400 50.698
67.4600 50.185
67.4800 49.576
67.5000 50.673
67.5200 51.134
67.5400 50.199
67.5600 50.012
67.5800 49.668
67.6000 49.379
67.6200 50.457
67.6400 51.388
67.6600 51.214
67.6800 50.020
67.7000 50.576
67.7200 51.119
67.7400 50.141
67.7600 50.358
67.7800 50.278
67.8000 50.453
67.8200 50.157
67.8400 49.739
67.8600 49.420
67.8800 50.322
67.9000 50.282
67.9200 50.091
67.9400 50.075
67.9600 49.938
67.9800 49.653
68.0000 49.910
68.0200 49.560
68.0400 50.493
68.0600 49.266
68.0800 49.318
68.1000 50.375
68.1200 49.536
68.1400 48.987
68.1600 49.903
68.1800 49.189
68.2000 49.905
68.2200 50.282
68.2400 49.737
68.2600 48.724
68.2800 49.648
68.3000 49.316
68.3200 49.327
68.3400 50.205
68.3600 49.976
68.3800 49.800
68.4000 49.534
68.4200 49.796
68.4400 50.005
68.4600 50.037
68.4800 49.251
68.5000 49.233
68.5200 49.718
68.5400 48.702
68.5600 48.863
68.5800 49.088
68.6000 50.142
68.6200 49.500
68.6400 50.104
68.6600 49.790
68.6800 49.530
68.7000 49.398
68.7200 48.757
68.7400 50.595
68.7600 50.070
68.7800 50.025
68.8000 49.644
68.8200 49.336
68.8400 50.056
68.8600 49.706
68.8800 49.370
68.9000 49.445
68.9200 48.957
68.9400 49.104
68.9600 49.317
68.9800 48.792
69.0000 48.770
69.0200 48.830
69.0400 49.515
69.0600 49.787
69.0800 49.543
69.1000 49.563
69.1200 49.418
69.1400 49.725
69.1600 49.914
69.1800 50.268
69.2000 48.698
69.2200 50.890
69.2400 49.591
69.2600 50.169
69.2800 50.487
69.3000 49.450
69.3200 50.195
69.3400 51.076
69.3600 50.282
69.3800 50.610
69.4000 50.835
69.4200 50.837
69.4400 50.736
69.4600 50.150
69.4800 49.666
69.5000 49.759
69.5200 50.236
69.5400 49.923
69.5600 49.972
69.5800 49.867
69.6000 50.362
69.6200 50.798
69.6400 51.080
69.6600 51.227
69.6800 50.324
69.7000 50.749
69.7200 50.841
69.7400 51.047
69.7600 51.043
69.7800 51.072
69.8000 50.603
69.8200 50.543
69.8400 49.790
69.8600 49.658
69.8800 50.778
69.9000 50.851
69.9200 51.393
69.9400 51.218
69.9600 51.023
69.9800 51.079
70.0000 50.643
70.0200 50.413
70.0400 50.717
70.0600 49.548
70.0800 51.819
70.1000 51.247
70.1200 50.120
70.1400 50.032
70.1600 50.346
70.1800 50.501
70.2000 52.029
70.2200 50.804
70.2400 51.084
70.2600 50.550
70.2800 51.065
70.3000 50.900
70.3200 51.115
70.3400 50.620
70.3600 51.013
70.3800 51.219
70.4000 51.337
70.4200 50.737
70.4400 50.378
70.4600 50.108
70.4800 51.353
70.5000 51.597
70.5200 51.643
70.5400 50.448
70.5600 50.076
70.5800 50.774
70.6000 50.346
70.6200 50.560
70.6400 50.749
70.6600 50.704
70.6800 51.194
70.7000 50.975
70.7200 51.070
70.7400 50.740
70.7600 51.250
70.7800 51.570
70.8000 51.195
70.8200 50.001
70.8400 51.529
70.8600 52.162
70.8800 51.681
70.9000 51.942
70.9200 50.886
70.9400 51.032
70.9600 51.477
70.9800 51.705
71.0000 51.667
71.0200 52.115
71.0400 50.954
71.0600 50.986
71.0800 52.126
71.1000 52.041
71.1200 51.873
71.1400 50.938
71.1600 51.739
71.1800 51.316
71.2000 50.360
71.2200 52.103
71.2400 51.637
71.2600 51.717
71.2800 50.877
71.3000 52.066
71.3200 51.112
71.3400 52.156
71.3600 51.730
71.3800 50.810
71.4000 51.136
71.4200 52.197
71.4400 52.646
71.4600 52.327
71.4800 51.942
71.5000 52.337
71.5200 51.852
71.5400 51.671
71.5600 51.620
71.5800 52.628
71.6000 51.831
71.6200 52.461
71.6400 52.288
71.6600 52.320
71.6800 51.777
71.7000 51.915
71.7200 52.061
71.7400 52.044
71.7600 51.546
71.7800 51.914
71.8000 52.588
71.8200 53.046
71.8400 52.987
71.8600 52.285
71.8800 51.935
71.9000 51.767
71.9200 51.240
71.9400 52.693
71.9600 52.039
71.9800 52.253
72.0000 53.219
72.0200 51.574
72.0400 51.453
72.0600 51.553
72.0800 53.247
72.1000 52.566
72.1200 53.302
72.1400 52.572
72.1600 52.919
72.1800 52.794
72.2000 52.582
72.2200 52.412
72.2400 52.418
72.2600 52.470
72.2800 52.484
72.3000 53.052
72.3200 51.917
72.3400 52.638
72.3600 52.791
72.3800 52.074
72.4000 53.214
72.4200 52.763
72.4400 53.193
72.4600 52.876
72.4800 53.282
72.5000 52.778
72.5200 53.623
72.5400 52.496
72.5600 52.933
72.5800 53.182
72.6000 52.360
72.6200 53.371
72.6400 51.958
72.6600 52.943
72.6800 52.318
72.7000 52.662
72.7200 52.813
72.7400 52.807
72.7600 53.627
72.7800 53.072
72.8000 53.539
72.8200 51.563
72.8400 53.508
72.8600 53.574
72.8800 53.003
72.9000 53.066
72.9200 52.600
72.9400 52.399
72.9600 52.226
72.9800 52.059
73.0000 53.427
73.0200 52.920
73.0400 52.254
73.0600 52.514
73.0800 52.548
73.1000 53.740
73.1200 52.815
73.1400 52.479
73.1600 53.328
73.1800 52.896
73.2000 53.155
73.2200 52.456
73.2400 53.125
73.2600 53.830
73.2800 53.656
73.3000 53.504
73.3200 52.354
73.3400 52.666
73.3600 52.475
73.3800 53.899
73.4000 52.791
73.4200 52.405
73.4400 53.535
73.4600 54.536
73.4800 53.369
73.5000 53.413
73.5200 53.865
73.5400 52.629
73.5600 53.036
73.5800 53.019
73.6000 53.110
73.6200 54.738
73.6400 53.494
73.6600 53.033
73.6800 52.079
73.7000 53.551
73.7200 53.888
73.7400 52.899
73.7600 53.485
73.7800 53.928
73.8000 52.932
73.8200 54.659
73.8400 53.431
73.8600 53.654
73.8800 54.060
73.9000 53.210
73.9200 53.407
73.9400 53.738
73.9600 53.336
73.9800 53.682
74.0000 54.669
74.0200 53.696
74.0400 53.532
74.0600 53.816
74.0800 55.401
74.1000 53.429
74.1200 54.122
74.1400 53.248
74.1600 54.250
74.1800 54.066
74.2000 53.710
74.2200 53.261
74.2400 53.922
74.2600 53.380
74.2800 53.722
74.3000 54.545
74.3200 54.329
74.3400 54.470
74.3600 55.437
74.3800 55.116
74.4000 54.770
74.4200 53.203
74.4400 54.283
74.4600 54.222
74.4800 54.381
74.5000 54.739
74.5200 54.666
74.5400 54.433
74.5600 54.766
74.5800 55.321
74.6000 54.991
74.6200 54.617
74.6400 54.559
74.6600 54.473
74.6800 54.127
74.7000 53.461
74.7200 54.482
74.7400 54.678
74.7600 55.660
74.7800 54.433
74.8000 54.467
74.8200 54.179
74.8400 54.075
74.8600 53.833
74.8800 54.331
74.9000 54.252
74.9200 54.637
74.9400 55.349
74.9600 54.649
74.9800 55.001
75.0000 54.616
75.0200 54.414
75.0400 54.293
75.0600 54.014
75.0800 54.777
75.1000 54.669
75.1200 55.869
75.1400 55.277
75.1600 54.802
75.1800 54.498
75.2000 54.447
75.2200 55.612
75.2400 54.957
75.2600 55.332
75.2800 55.046
75.3000 55.287
75.3200 53.931
75.3400 54.544
75.3600 55.823
75.3800 55.496
75.4000 55.644
75.4200 57.074
75.4400 56.751
75.4600 56.358
75.4800 56.292
75.5000 56.993
75.5200 55.881
75.5400 55.640
75.5600 56.039
75.5800 55.210
75.6000 55.002
75.6200 55.608
75.6400 55.216
75.6600 55.161
75.6800 54.999
75.7000 54.686
75.7200 54.911
75.7400 55.396
75.7600 54.619
75.7800 55.464
75.8000 55.000
75.8200 54.518
75.8400 54.446
75.8600 53.847
75.8800 54.603
75.9000 56.592
75.9200 55.929
75.9400 55.085
75.9600 55.762
75.9800 55.120
76.0000 55.400
76.0200 55.661
76.0400 55.510
76.0600 57.076
76.0800 56.559
76.1000 56.289
76.1200 56.755
76.1400 56.085
76.1600 56.878
76.1800 56.221
76.2000 57.573
76.2200 55.462
76.2400 55.364
76.2600 55.568
76.2800 55.939
76.3000 57.274
76.3200 56.630
76.3400 56.981
76.3600 55.823
76.3800 56.645
76.4000 54.870
76.4200 56.662
76.4400 56.173
76.4600 56.152
76.4800 57.304
76.5000 56.972
76.5200 56.269
76.5400 55.483
76.5600 56.147
76.5800 56.377
76.6000 57.037
76.6200 56.703
76.6400 56.284
76.6600 57.652
76.6800 56.597
76.7000 56.761
76.7200 56.335
76.7400 56.910
76.7600 56.920
76.7800 57.122
76.8000 55.737
76.8200 57.200
76.8400 56.641
76.8600 56.820
76.8800 56.760
76.9000 57.194
76.9200 57.533
76.9400 57.163
76.9600 57.084
76.9800 56.133
77.0000 56.414
77.0200 56.054
77.0400 56.144
77.0600 56.548
77.0800 56.278
77.1000 56.359
77.1200 56.706
77.1400 57.677
77.1600 54.885
77.1800 55.832
77.2000 56.776
77.2200 55.488
77.2400 56.424
77.2600 57.516
77.2800 56.669
77.3000 57.033
77.3200 57.675
77.3400 57.425
77.3600 56.888
77.3800 57.112
77.4000 55.891
77.4200 56.396
77.4400 56.751
77.4600 57.377
77.4800 57.505
77.5000 56.887
77.5200 56.257
77.5400 56.749
77.5600 57.129
77.5800 57.295
77.6000 57.988
77.6200 56.790
77.6400 57.696
77.6600 56.192
77.6800 57.379
77.7000 57.252
77.7200 57.085
77.7400 57.768
77.7600 58.149
77.7800 57.098
77.8000 56.291
77.8200 57.420
77.8400 57.871
77.8600 56.920
77.8800 56.647
77.9000 57.506
77.9200 56.888
77.9400 56.770
77.9600 57.475
77.9800 58.140
78.0000 56.945
78.0200 56.911
78.0400 57.410
78.0600 57.357
78.0800 57.487
78.1000 57.157
78.1200 57.422
78.1400 57.668
78.1600 58.154
78.1800 57.285
78.2000 58.258
78.2200 58.487
78.2400 57.707
78.2600 57.586
78.2800 58.025
78.3000 58.705
78.3200 58.358
78.3400 56.098
78.3600 56.741
78.3800 58.135
78.4000 58.722
78.4200 58.378
78.4400 57.136
78.4600 58.174
78.4800 57.810
78.5000 56.979
78.5200 58.515
78.5400 58.447
78.5600 57.084
78.5800 57.662
78.6000 58.681
78.6200 57.244
78.6400 57.087
78.6600 57.874
78.6800 58.280
78.7000 58.054
78.7200 57.560
78.7400 58.200
78.7600 59.181
78.7800 58.003
78.8000 57.600
78.8200 57.674
78.8400 58.322
78.8600 58.537
78.8800 59.904
78.9000 58.654
78.9200 58.113
78.9400 58.284
78.9600 59.028
78.9800 59.190
79.0000 58.395
79.0200 58.588
79.0400 58.809
79.0600 59.821
79.0800 57.646
79.1000 58.725
79.1200 58.914
79.1400 58.405
79.1600 58.375
79.1800 59.124
79.2000 59.120
79.2200 59.121
79.2400 59.590
79.2600 60.053
79.2800 58.526
79.3000 59.402
79.3200 59.378
79.3400 58.466
79.3600 58.742
79.3800 59.337
79.4000 58.591
79.4200 59.118
79.4400 59.147
79.4600 58.629
79.4800 58.590
79.5000 58.318
79.5200 59.046
79.5400 59.751
79.5600 59.388
79.5800 60.285
79.6000 59.555
79.6200 58.505
79.6400 59.508
79.6600 59.772
79.6800 58.755
79.7000 59.534
79.7200 58.668
79.7400 59.558
79.7600 58.944
79.7800 59.475
79.8000 59.590
79.8200 58.477
79.8400 58.570
79.8600 59.441
79.8800 59.263
79.9000 60.394
79.9200 60.542
79.9400 60.770
79.9600 60.069
79.9800 58.921
80.0000 59.552
