'Id: "" Comment: "" Operator: "Lab Manager" Anode: "Cu" Scantype: "Coupled TwoTheta/Theta" TimePerStep: "113.4655" X: "9999" Y: "9999" Z: "-2.700037" 
20.0000 6.454
20.0200 6.686
20.0400 6.453
20.0600 6.471
20.0800 6.636
20.1000 6.696
20.1200 6.827
20.1400 7.012
20.1600 6.825
20.1800 6.504
20.2000 6.468
20.2200 6.584
20.2400 6.947
20.2600 7.300
20.2800 7.013
20.3000 7.053
20.3200 7.085
20.3400 7.047
20.3600 6.795
20.3800 7.210
20.4000 7.533
20.4200 7.240
20.4400 6.979
20.4600 6.750
20.4800 6.894
20.5000 6.819
20.5200 6.564
20.5400 7.193
20.5600 7.139
20.5800 7.247
20.6000 7.267
20.6200 7.023
20.6400 7.103
20.6600 7.198
20.6800 7.190
20.7000 6.896
20.7200 6.993
20.7400 7.383
20.7600 7.165
20.7800 7.201
20.8000 7.602
20.8200 7.513
20.8400 7.426
20.8600 7.456
20.8800 7.133
20.9000 7.208
20.9200 7.401
20.9400 7.752
20.9600 7.617
20.9800 7.351
21.0000 7.544
21.0200 7.670
21.0400 7.555
21.0600 7.588
21.0800 7.753
21.1000 7.833
21.1200 7.608
21.1400 7.712
21.1600 7.287
21.1800 7.479
21.2000 7.570
21.2200 7.393
21.2400 7.994
21.2600 8.044
21.2800 8.008
21.3000 8.301
21.3200 8.036
21.3400 8.112
21.3600 8.168
21.3800 7.951
21.4000 7.883
21.4200 7.950
21.4400 8.020
21.4600 7.953
21.4800 8.138
21.5000 8.355
21.5200 8.245
21.5400 8.107
21.5600 7.915
21.5800 7.856
21.6000 8.290
21.6200 8.355
21.6400 8.398
21.6600 8.105
21.6800 7.890
21.7000 8.104
21.7200 8.294
21.7400 7.990
21.7600 8.158
21.7800 8.458
21.8000 8.446
21.8200 8.708
21.8400 8.274
21.8600 8.263
21.8800 8.337
21.9000 8.402
21.9200 8.330
21.9400 8.447
21.9600 8.332
21.9800 8.390
22.0000 8.579
22.0200 8.251
22.0400 8.140
22.0600 8.192
22.0800 8.473
22.1000 8.282
22.1200 8.660
22.1400 8.567
22.1600 8.673
22.1800 8.381
22.2000 9.076
22.2200 8.448
22.2400 8.671
22.2600 8.401
22.2800 8.139
22.3000 8.822
22.3200 8.976
22.3400 9.016
22.3600 8.567
22.3800 8.837
22.4000 8.925
22.4200 9.100
22.4400 9.022
22.4600 9.368
22.4800 9.020
22.5000 9.387
22.5200 9.346
22.5400 9.047
22.5600 9.225
22.5800 8.961
22.6000 8.908
22.6200 8.863
22.6400 9.094
22.6600 9.162
22.6800 8.954
22.7000 8.879
22.7200 9.091
22.7400 9.376
22.7600 9.409
22.7800 9.420
22.8000 9.045
22.8200 9.526
22.8400 9.303
22.8600 9.542
22.8800 9.541
22.9000 9.788
22.9200 9.130
22.9400 9.079
22.9600 9.703
22.9800 9.373
23.0000 9.842
23.0200 10.039
23.0400 9.672
23.0600 9.340
23.0800 9.371
23.1000 9.996
23.1200 9.636
23.1400 9.950
23.1600 9.823
23.1800 9.579
23.2000 9.279
23.2200 10.100
23.2400 10.020
23.2600 9.577
23.2800 9.653
23.3000 9.758
23.3200 9.769
23.3400 9.860
23.3600 10.017
23.3800 10.182
23.4000 10.130
23.4200 9.894
23.4400 10.084
23.4600 9.895
23.4800 9.831
23.5000 9.959
23.5200 9.911
23.5400 10.198
23.5600 9.968
23.5800 10.143
23.6000 10.451
23.6200 9.657
23.6400 9.793
23.6600 10.812
23.6800 10.510
23.7000 9.950
23.7200 9.618
23.7400 10.287
23.7600 10.062
23.7800 10.434
23.8000 10.324
23.8200 10.477
23.8400 10.156
23.8600 10.011
23.8800 9.547
23.9000 10.332
23.9200 10.638
23.9400 10.471
23.9600 10.621
23.9800 10.566
24.0000 10.889
24.0200 10.459
24.0400 10.535
24.0600 10.432
24.0800 10.736
24.1000 10.667
24.1200 10.538
24.1400 10.318
24.1600 10.183
24.1800 10.099
24.2000 10.279
24.2200 10.817
24.2400 10.523
24.2600 10.476
24.2800 10.875
24.3000 10.393
24.3200 10.756
24.3400 10.650
24.3600 10.682
24.3800 10.977
24.4000 11.226
24.4200 11.151
24.4400 10.578
24.4600 10.808
24.4800 10.809
24.5000 10.356
24.5200 10.876
24.5400 10.914
24.5600 10.972
24.5800 10.665
24.6000 11.076
24.6200 11.028
24.6400 10.882
24.6600 11.257
24.6800 10.895
24.7000 11.218
24.7200 11.159
24.7400 11.099
24.7600 11.113
24.7800 11.125
24.8000 11.694
24.8200 11.485
24.8400 11.379
24.8600 11.046
24.8800 11.751
24.9000 11.566
24.9200 11.121
24.9400 11.274
24.9600 11.274
24.9800 11.503
25.0000 11.213
25.0200 11.068
25.0400 11.561
25.0600 11.173
25.0800 10.804
25.1000 10.888
25.1200 11.369
25.1400 11.456
25.1600 11.269
25.1800 11.123
25.2000 11.437
25.2200 11.641
25.2400 11.855
25.2600 11.775
25.2800 11.416
25.3000 11.566
25.3200 11.532
25.3400 12.143
25.3600 12.174
25.3800 12.015
25.4000 11.745
25.4200 11.684
25.4400 11.987
25.4600 11.726
25.4800 11.728
25.5000 11.403
25.5200 11.493
25.5400 11.947
25.5600 11.338
25.5800 11.989
25.6000 11.574
25.6200 12.073
25.6400 11.631
25.6600 12.050
25.6800 11.856
25.7000 12.220
25.7200 12.063
25.7400 11.765
25.7600 11.835
25.7800 12.357
25.8000 12.100
25.8200 11.632
25.8400 12.266
25.8600 11.500
25.8800 12.218
25.9000 12.523
25.9200 12.294
25.9400 12.359
25.9600 12.344
25.9800 12.014
26.0000 11.983
26.0200 12.395
26.0400 11.936
26.0600 12.034
26.0800 11.545
26.1000 12.312
26.1200 11.989
26.1400 11.958
26.1600 12.321
26.1800 12.146
26.2000 11.915
26.2200 12.186
26.2400 12.246
26.2600 12.299
26.2800 12.447
26.3000 11.847
26.3200 12.057
26.3400 12.430
26.3600 12.153
26.3800 12.594
26.4000 12.291
26.4200 11.956
26.4400 12.518
26.4600 12.787
26.4800 12.816
26.5000 12.932
26.5200 12.757
26.5400 12.240
26.5600 12.156
26.5800 12.849
26.6000 12.585
26.6200 12.808
26.6400 12.355
26.6600 12.505
26.6800 12.729
26.7000 12.290
26.7200 13.415
26.7400 13.669
26.7600 13.032
26.7800 12.780
26.8000 12.586
26.8200 12.744
26.8400 12.943
26.8600 13.421
26.8800 12.671
26.9000 12.777
26.9200 13.251
26.9400 12.831
26.9600 12.179
26.9800 12.674
27.0000 12.696
27.0200 12.839
27.0400 13.480
27.0600 13.163
27.0800 13.547
27.1000 13.036
27.1200 13.567
27.1400 13.191
27.1600 13.101
27.1800 12.686
27.2000 13.042
27.2200 12.634
27.2400 13.450
27.2600 13.408
27.2800 13.343
27.3000 13.064
27.3200 13.461
27.3400 12.892
27.3600 13.299
27.3800 13.745
27.4000 13.237
27.4200 13.795
27.4400 13.374
27.4600 13.280
27.4800 13.344
27.5000 13.279
27.5200 13.628
27.5400 13.560
27.5600 13.025
27.5800 12.769
27.6000 12.868
27.6200 13.555
27.6400 13.968
27.6600 13.121
27.6800 13.741
27.7000 13.355
27.7200 13.955
27.7400 13.439
27.7600 13.962
27.7800 14.067
27.8000 13.808
27.8200 13.742
27.8400 13.450
27.8600 13.990
27.8800 13.505
27.9000 13.831
27.9200 13.823
27.9400 13.478
27.9600 13.607
27.9800 13.662
28.0000 14.515
28.0200 14.235
28.0400 13.965
28.0600 14.018
28.0800 13.580
28.1000 13.928
28.1200 14.162
28.1400 13.742
28.1600 14.160
28.1800 13.793
28.2000 13.677
28.2200 13.970
28.2400 14.226
28.2600 14.320
28.2800 14.670
28.3000 14.430
28.3200 14.066
28.3400 13.888
28.3600 13.913
28.3800 14.563
28.4000 14.853
28.4200 13.900
28.4400 13.955
28.4600 14.506
28.4800 14.178
28.5000 13.788
28.5200 14.563
28.5400 14.304
28.5600 14.163
28.5800 14.200
28.6000 14.057
28.6200 14.054
28.6400 14.592
28.6600 14.297
28.6800 13.969
28.7000 14.352
28.7200 14.731
28.7400 14.119
28.7600 14.582
28.7800 14.807
28.8000 14.668
28.8200 14.632
28.8400 14.368
28.8600 14.153
28.8800 14.901
28.9000 14.393
28.9200 14.356
28.9400 14.652
28.9600 14.722
28.9800 14.636
29.0000 14.188
29.0200 14.568
29.0400 14.512
29.0600 14.484
29.0800 15.100
29.1000 15.229
29.1200 14.886
29.1400 14.788
29.1600 14.834
29.1800 15.120
29.2000 14.845
29.2200 15.133
29.2400 14.863
29.2600 15.154
29.2800 15.398
29.3000 15.433
29.3200 14.766
29.3400 14.860
29.3600 15.292
29.3800 15.107
29.4000 15.775
29.4200 15.147
29.4400 15.059
29.4600 14.987
29.4800 15.650
29.5000 15.184
29.5200 15.348
29.5400 15.724
29.5600 14.906
29.5800 15.570
29.6000 15.732
29.6200 15.698
29.6400 15.728
29.6600 16.043
29.6800 16.274
29.7000 16.100
29.7200 16.175
29.7400 16.673
29.7600 15.628
29.7800 15.623
29.8000 16.119
29.8200 15.521
29.8400 15.493
29.8600 14.532
29.8800 15.254
29.9000 15.581
29.9200 15.907
29.9400 15.390
29.9600 16.380
29.9800 16.008
30.0000 15.193
30.0200 15.741
30.0400 15.812
30.0600 15.552
30.0800 15.685
30.1000 15.294
30.1200 15.601
30.1400 15.627
30.1600 16.371
30.1800 16.007
30.2000 16.159
30.2200 16.121
30.2400 15.599
30.2600 15.385
30.2800 15.464
30.3000 16.190
30.3200 16.514
30.3400 16.259
30.3600 16.266
30.3800 16.106
30.4000 15.862
30.4200 16.032
30.4400 15.953
30.4600 15.656
30.4800 16.122
30.5000 16.322
30.5200 16.047
30.5400 15.939
30.5600 15.942
30.5800 16.056
30.6000 16.072
30.6200 16.047
30.6400 16.246
30.6600 16.689
30.6800 16.201
30.7000 16.292
30.7200 16.573
30.7400 16.453
30.7600 16.655
30.7800 16.222
30.8000 16.737
30.8200 16.326
30.8400 17.103
30.8600 16.911
30.8800 16.600
30.9000 16.547
30.9200 16.616
30.9400 16.809
30.9600 16.918
30.9800 17.067
31.0000 16.135
31.0200 16.081
31.0400 16.237
31.0600 17.034
31.0800 16.853
31.1000 16.975
31.1200 16.699
31.1400 16.593
31.1600 16.804
31.1800 17.073
31.2000 16.528
31.2200 16.693
31.2400 17.553
31.2600 16.379
31.2800 16.706
31.3000 16.630
31.3200 17.139
31.3400 16.285
31.3600 16.939
31.3800 16.582
31.4000 16.686
31.4200 16.884
31.4400 17.563
31.4600 17.043
31.4800 16.418
31.5000 17.140
31.5200 16.902
31.5400 17.124
31.5600 17.027
31.5800 16.622
31.6000 16.809
31.6200 17.396
31.6400 17.243
31.6600 17.140
31.6800 16.920
31.7000 17.225
31.7200 16.592
31.7400 16.932
31.7600 17.167
31.7800 17.310
31.8000 16.937
31.8200 17.842
31.8400 16.904
31.8600 17.188
31.8800 17.070
31.9000 17.580
31.9200 17.281
31.9400 17.828
31.9600 18.435
31.9800 17.455
32.0000 16.919
32.0200 18.053
32.0400 17.495
32.0600 17.816
32.0800 17.322
32.1000 17.472
32.1200 18.243
32.1400 17.894
32.1600 18.071
32.1800 17.615
32.2000 18.127
32.2200 18.500
32.2400 18.049
32.2600 17.762
32.2800 17.704
32.3000 17.758
32.3200 17.800
32.3400 17.542
32.3600 17.731
32.3800 17.898
32.4000 17.178
32.4200 17.903
32.4400 18.270
32.4600 18.019
32.4800 17.418
32.5000 18.701
32.5200 17.785
32.5400 17.585
32.5600 18.537
32.5800 17.596
32.6000 18.372
32.6200 18.820
32.6400 18.738
32.6600 18.315
32.6800 18.591
32.7000 17.877
32.7200 17.932
32.7400 17.883
32.7600 17.736
32.7800 18.282
32.8000 17.997
32.8200 18.683
32.8400 18.588
32.8600 17.989
32.8800 18.730
32.9000 18.288
32.9200 18.944
32.9400 18.896
32.9600 18.765
32.9800 18.723
33.0000 18.268
33.0200 17.904
33.0400 18.860
33.0600 18.168
33.0800 18.453
33.1000 18.410
33.1200 19.138
33.1400 18.878
33.1600 18.951
33.1800 18.922
33.2000 18.790
33.2200 18.518
33.2400 19.135
33.2600 18.533
33.2800 18.314
33.3000 18.606
33.3200 19.354
33.3400 19.067
33.3600 19.788
33.3800 19.181
33.4000 19.200
33.4200 18.797
33.4400 19.168
33.4600 18.985
33.4800 19.234
33.5000 19.187
33.5200 18.934
33.5400 19.371
33.5600 18.692
33.5800 18.880
33.6000 19.928
33.6200 19.419
33.6400 18.983
33.6600 19.077
33.6800 18.911
33.7000 19.365
33.7200 19.239
33.7400 19.306
33.7600 19.385
33.7800 18.992
33.8000 18.825
33.8200 19.789
33.8400 19.295
33.8600 19.668
33.8800 18.902
33.9000 19.709
33.9200 19.743
33.9400 19.619
33.9600 19.666
33.9800 19.243
34.0000 19.337
34.0200 19.750
34.0400 19.788
34.0600 19.408
34.0800 19.336
34.1000 19.560
34.1200 19.936
34.1400 19.371
34.1600 19.475
34.1800 19.952
34.2000 19.087
34.2200 19.519
34.2400 19.901
34.2600 20.038
34.2800 20.009
34.3000 19.865
34.3200 19.970
34.3400 19.507
34.3600 20.031
34.3800 20.077
34.4000 19.929
34.4200 19.980
34.4400 19.888
34.4600 20.112
34.4800 19.736
34.5000 20.435
34.5200 20.224
34.5400 20.483
34.5600 20.232
34.5800 20.560
34.6000 20.514
34.6200 20.336
34.6400 20.648
34.6600 20.992
34.6800 20.879
34.7000 19.798
34.7200 20.233
34.7400 20.626
34.7600 21.130
34.7800 21.369
34.8000 21.212
34.8200 21.301
34.8400 21.416
34.8600 22.299
34.8800 22.932
34.9000 23.379
34.9200 23.734
34.9400 23.120
34.9600 23.092
34.9800 23.501
35.0000 23.553
35.0200 23.936
35.0400 23.298
35.0600 23.084
35.0800 22.868
35.1000 21.899
35.1200 21.906
35.1400 21.390
35.1600 22.068
35.1800 21.390
35.2000 21.430
35.2200 21.050
35.2400 21.895
35.2600 21.860
35.2800 21.280
35.3000 20.895
35.3200 21.542
35.3400 21.632
35.3600 20.887
35.3800 21.530
35.4000 21.618
35.4200 20.999
35.4400 20.996
35.4600 20.815
35.4800 21.274
35.5000 21.577
35.5200 21.278
35.5400 21.274
35.5600 21.615
35.5800 21.615
35.6000 21.553
35.6200 20.650
35.6400 21.494
35.6600 21.537
35.6800 21.427
35.7000 22.018
35.7200 21.500
35.7400 22.087
35.7600 21.410
35.7800 20.592
35.8000 21.297
35.8200 21.708
35.8400 21.297
35.8600 22.025
35.8800 21.777
35.9000 21.676
35.9200 21.448
35.9400 22.073
35.9600 21.570
35.9800 21.613
36.0000 22.151
36.0200 21.862
36.0400 21.837
36.0600 22.042
36.0800 21.861
36.1000 21.331
36.1200 22.565
36.1400 21.499
36.1600 22.152
36.1800 22.158
36.2000 21.449
36.2200 22.094
36.2400 21.789
36.2600 21.741
36.2800 20.901
36.3000 21.927
36.3200 22.699
36.3400 21.947
36.3600 21.687
36.3800 22.081
36.4000 22.497
36.4200 21.858
36.4400 22.560
36.4600 22.301
36.4800 22.736
36.5000 22.091
36.5200 23.314
36.5400 23.220
36.5600 22.595
36.5800 22.253
36.6000 23.218
36.6200 23.046
36.6400 23.129
36.6600 22.751
36.6800 23.697
36.7000 22.974
36.7200 23.276
36.7400 23.323
36.7600 23.657
36.7800 23.450
36.8000 22.392
36.8200 23.425
36.8400 22.944
36.8600 22.734
36.8800 23.056
36.9000 22.978
36.9200 22.913
36.9400 23.103
36.9600 23.258
36.9800 22.989
37.0000 23.515
37.0200 23.054
37.0400 23.344
37.0600 23.795
37.0800 23.484
37.1000 22.731
37.1200 23.592
37.1400 22.864
37.1600 23.728
37.1800 23.890
37.2000 24.122
37.2200 23.616
37.2400 24.045
37.2600 23.774
37.2800 23.658
37.3000 24.363
37.3200 23.756
37.3400 24.180
37.3600 23.489
37.3800 25.080
37.4000 24.367
37.4200 23.897
37.4400 24.363
37.4600 23.783
37.4800 24.361
37.5000 24.663
37.5200 24.290
37.5400 23.768
37.5600 24.120
37.5800 24.142
37.6000 24.006
37.6200 24.488
37.6400 25.037
37.6600 25.195
37.6800 24.416
37.7000 24.423
37.7200 24.962
37.7400 24.842
37.7600 23.900
37.7800 24.411
37.8000 24.717
37.8200 24.698
37.8400 24.540
37.8600 24.328
37.8800 24.739
37.9000 23.966
37.9200 23.963
37.9400 24.901
37.9600 25.453
37.9800 25.203
38.0000 25.709
38.0200 25.103
38.0400 24.429
38.0600 24.688
38.0800 25.363
38.1000 24.651
38.1200 25.667
38.1400 25.364
38.1600 25.135
38.1800 25.166
38.2000 25.243
38.2200 25.525
38.2400 24.922
38.2600 25.264
38.2800 25.932
38.3000 25.040
38.3200 25.224
38.3400 25.624
38.3600 25.588
38.3800 25.734
38.4000 25.351
38.4200 24.950
38.4400 26.370
38.4600 26.352
38.4800 26.058
38.5000 25.919
38.5200 25.754
38.5400 25.186
38.5600 24.927
38.5800 25.589
38.6000 25.636
38.6200 26.128
38.6400 25.978
38.6600 25.899
38.6800 25.773
38.7000 25.163
38.7200 26.189
38.7400 26.207
38.7600 25.440
38.7800 26.212
38.8000 26.044
38.8200 26.055
38.8400 26.457
38.8600 25.295
38.8800 25.672
38.9000 25.873
38.9200 25.962
38.9400 26.110
38.9600 26.130
38.9800 26.422
39.0000 26.837
39.0200 26.576
39.0400 26.074
39.0600 26.260
39.0800 26.790
39.1000 26.193
39.1200 26.649
39.1400 26.659
39.1600 26.390
39.1800 26.885
39.2000 27.157
39.2200 26.850
39.2400 26.291
39.2600 26.776
39.2800 26.128
39.3000 26.314
39.3200 26.683
39.3400 26.440
39.3600 26.184
39.3800 27.204
39.4000 26.958
39.4200 26.185
39.4400 27.304
39.4600 27.054
39.4800 27.220
39.5000 26.784
39.5200 27.160
39.5400 26.867
39.5600 26.942
39.5800 27.370
39.6000 27.191
39.6200 26.563
39.6400 27.571
39.6600 27.870
39.6800 26.605
39.7000 27.094
39.7200 26.148
39.7400 26.312
39.7600 27.191
39.7800 27.094
39.8000 27.290
39.8200 27.864
39.8400 26.984
39.8600 27.118
39.8800 27.476
39.9000 26.894
39.9200 26.709
39.9400 27.754
39.9600 27.141
39.9800 27.168
40.0000 27.744
40.0200 27.226
40.0400 27.135
40.0600 27.161
40.0800 27.290
40.1000 27.910
40.1200 27.262
40.1400 27.842
40.1600 27.538
40.1800 28.492
40.2000 27.837
40.2200 27.825
40.2400 28.109
40.2600 27.484
40.2800 27.589
40.3000 28.123
40.3200 28.529
40.3400 28.755
40.3600 28.249
40.3800 27.602
40.4000 27.554
40.4200 27.810
40.4400 28.135
40.4600 27.883
40.4800 27.983
40.5000 27.755
40.5200 27.551
40.5400 28.064
40.5600 28.109
40.5800 27.658
40.6000 27.633
40.6200 28.409
40.6400 27.845
40.6600 28.157
40.6800 28.423
40.7000 28.633
40.7200 27.902
40.7400 28.196
40.7600 27.932
40.7800 27.826
40.8000 27.626
40.8200 27.897
40.8400 28.083
40.8600 28.677
40.8800 28.606
40.9000 28.312
40.9200 28.478
40.9400 28.564
40.9600 28.399
40.9800 27.998
41.0000 28.682
41.0200 28.264
41.0400 27.780
41.0600 27.958
41.0800 28.797
41.1000 27.301
41.1200 28.502
41.1400 29.742
41.1600 28.802
41.1800 29.118
41.2000 28.831
41.2200 27.986
41.2400 28.534
41.2600 28.893
41.2800 29.208
41.3000 28.709
41.3200 29.210
41.3400 29.347
41.3600 28.448
41.3800 28.587
41.4000 29.825
41.4200 29.694
41.4400 28.612
41.4600 28.506
41.4800 28.632
41.5000 29.346
41.5200 29.574
41.5400 28.842
41.5600 28.715
41.5800 28.323
41.6000 28.617
41.6200 29.169
41.6400 29.068
41.6600 27.910
41.6800 29.020
41.7000 30.119
41.7200 29.702
41.7400 29.595
41.7600 30.226
41.7800 29.600
41.8000 28.349
41.8200 29.379
41.8400 29.768
41.8600 29.740
41.8800 29.421
41.9000 29.329
41.9200 28.983
41.9400 28.990
41.9600 29.377
41.9800 29.972
42.0000 29.739
42.0200 29.617
42.0400 29.151
42.0600 29.939
42.0800 29.210
42.1000 28.877
42.1200 29.600
42.1400 29.127
42.1600 30.370
42.1800 30.168
42.2000 30.052
42.2200 30.072
42.2400 30.138
42.2600 31.145
42.2800 30.598
42.3000 29.930
42.3200 30.328
42.3400 31.209
42.3600 30.950
42.3800 31.359
42.4000 31.350
42.4200 31.797
42.4400 30.578
42.4600 30.945
42.4800 31.293
42.5000 31.816
42.5200 32.997
42.5400 33.172
42.5600 31.645
42.5800 31.575
42.6000 31.490
42.6200 31.848
42.6400 32.409
42.6600 32.278
42.6800 31.235
42.7000 31.241
42.7200 30.978
42.7400 31.310
42.7600 31.251
42.7800 30.903
42.8000 30.768
42.8200 29.843
42.8400 29.985
42.8600 30.171
42.8800 30.125
42.9000 30.767
42.9200 30.150
42.9400 30.183
42.9600 30.144
42.9800 29.838
43.0000 30.085
43.0200 29.884
43.0400 30.415
43.0600 30.299
43.0800 29.631
43.1000 31.283
43.1200 30.845
43.1400 29.722
43.1600 30.345
43.1800 30.552
43.2000 29.993
43.2200 30.795
43.2400 30.594
43.2600 30.476
43.2800 31.127
43.3000 30.160
43.3200 30.714
43.3400 30.804
43.3600 30.723
43.3800 31.082
43.4000 30.897
43.4200 30.329
43.4400 29.866
43.4600 30.476
43.4800 30.465
43.5000 30.443
43.5200 31.493
43.5400 31.224
43.5600 30.770
43.5800 30.723
43.6000 31.357
43.6200 30.836
43.6400 31.232
43.6600 31.134
43.6800 30.626
43.7000 31.411
43.7200 31.956
43.7400 31.142
43.7600 31.016
43.7800 31.595
43.8000 31.798
43.8200 32.145
43.8400 32.996
43.8600 32.192
43.8800 33.161
43.9000 33.564
43.9200 34.422
43.9400 34.361
43.9600 34.975
43.9800 35.442
44.0000 37.697
44.0200 40.359
44.0400 43.185
44.0600 47.653
44.0800 52.934
44.1000 57.059
44.1200 60.391
44.1400 60.526
44.1600 59.673
44.1800 55.977
44.2000 54.730
44.2200 52.512
44.2400 50.400
44.2600 48.578
44.2800 45.713
44.3000 41.894
44.3200 39.002
44.3400 37.453
44.3600 35.650
44.3800 35.046
44.4000 33.670
44.4200 32.417
44.4400 33.249
44.4600 32.819
44.4800 31.378
44.5000 31.963
44.5200 32.063
44.5400 32.176
44.5600 32.035
44.5800 32.603
44.6000 31.694
44.6200 31.938
44.6400 32.560
44.6600 32.814
44.6800 31.744
44.7000 32.671
44.7200 33.878
44.7400 34.806
44.7600 36.862
44.7800 40.155
44.8000 41.417
44.8200 40.364
44.8400 40.433
44.8600 40.590
44.8800 41.747
44.9000 43.424
44.9200 43.546
44.9400 43.277
44.9600 42.553
44.9800 41.454
45.0000 41.128
45.0200 41.316
45.0400 41.054
45.0600 41.300
45.0800 40.846
45.1000 40.257
45.1200 41.805
45.1400 40.613
45.1600 39.349
45.1800 39.943
45.2000 38.176
45.2200 38.918
45.2400 38.994
45.2600 38.049
45.2800 37.434
45.3000 36.489
45.3200 36.244
45.3400 35.036
45.3600 35.439
45.3800 34.671
45.4000 34.807
45.4200 33.674
45.4400 34.187
45.4600 33.126
45.4800 33.826
45.5000 32.887
45.5200 32.640
45.5400 32.387
45.5600 32.259
45.5800 32.069
45.6000 31.569
45.6200 32.217
45.6400 30.889
45.6600 31.365
45.6800 30.708
45.7000 31.471
45.7200 32.044
45.7400 32.111
45.7600 31.952
45.7800 31.916
45.8000 32.347
45.8200 33.064
45.8400 32.123
45.8600 30.771
45.8800 32.009
45.9000 31.490
45.9200 31.915
45.9400 32.181
45.9600 32.266
45.9800 31.857
46.0000 32.472
46.0200 32.485
46.0400 32.428
46.0600 32.511
46.0800 31.417
46.1000 32.566
46.1200 31.461
46.1400 32.711
46.1600 31.303
46.1800 31.807
46.2000 32.346
46.2200 32.539
46.2400 32.584
46.2600 32.546
46.2800 31.985
46.3000 32.580
46.3200 32.196
46.3400 31.925
46.3600 31.881
46.3800 32.642
46.4000 32.747
46.4200 32.012
46.4400 32.354
46.4600 32.342
46.4800 32.601
46.5000 32.835
46.5200 32.825
46.5400 32.507
46.5600 32.347
46.5800 32.793
46.6000 33.335
46.6200 32.037
46.6400 32.504
46.6600 32.279
46.6800 31.963
46.7000 31.984
46.7200 32.459
46.7400 32.051
46.7600 32.892
46.7800 33.594
46.8000 33.314
46.8200 32.674
46.8400 32.216
46.8600 32.734
46.8800 32.590
46.9000 33.196
46.9200 32.866
46.9400 32.285
46.9600 32.447
46.9800 32.115
47.0000 32.920
47.0200 32.534
47.0400 32.492
47.0600 32.626
47.0800 31.626
47.1000 31.891
47.1200 32.124
47.1400 32.571
47.1600 32.820
47.1800 33.181
47.2000 32.116
47.2200 31.798
47.2400 32.176
47.2600 33.026
47.2800 33.042
47.3000 32.756
47.3200 33.107
47.3400 33.667
47.3600 34.033
47.3800 32.461
47.4000 33.016
47.4200 32.560
47.4400 32.874
47.4600 33.114
47.4800 33.042
47.5000 32.587
47.5200 33.494
47.5400 32.835
47.5600 32.456
47.5800 32.764
47.6000 33.665
47.6200 33.078
47.6400 33.148
47.6600 32.475
47.6800 33.315
47.7000 33.814
47.7200 33.386
47.7400 32.935
47.7600 33.542
47.7800 32.687
47.8000 34.053
47.8200 33.272
47.8400 33.379
47.8600 32.436
47.8800 33.144
47.9000 33.053
47.9200 32.403
47.9400 32.769
47.9600 33.457
47.9800 33.367
48.0000 32.740
48.0200 33.127
48.0400 32.976
48.0600 34.224
48.0800 34.155
48.1000 33.615
48.1200 33.321
48.1400 32.942
48.1600 33.996
48.1800 33.866
48.2000 33.699
48.2200 33.854
48.2400 33.621
48.2600 33.175
48.2800 34.094
48.3000 33.705
48.3200 33.894
48.3400 34.238
48.3600 34.084
48.3800 34.008
48.4000 33.551
48.4200 32.984
48.4400 33.042
48.4600 32.523
48.4800 34.502
48.5000 33.319
48.5200 32.990
48.5400 33.524
48.5600 33.573
48.5800 34.138
48.6000 33.542
48.6200 33.536
48.6400 33.247
48.6600 33.462
48.6800 34.811
48.7000 33.945
48.7200 34.574
48.7400 33.525
48.7600 34.639
48.7800 34.375
48.8000 33.615
48.8200 33.601
48.8400 33.338
48.8600 33.831
48.8800 34.037
48.9000 34.262
48.9200 34.733
48.9400 35.362
48.9600 34.582
48.9800 34.719
49.0000 33.896
49.0200 34.507
49.0400 34.643
49.0600 33.864
49.0800 33.833
49.1000 33.593
49.1200 34.103
49.1400 34.578
49.1600 34.294
49.1800 33.703
49.2000 33.873
49.2200 33.464
49.2400 34.253
49.2600 34.465
49.2800 35.409
49.3000 35.213
49.3200 33.539
49.3400 34.011
49.3600 33.755
49.3800 34.020
49.4000 34.499
49.4200 34.476
49.4400 34.166
49.4600 34.931
49.4800 34.408
49.5000 34.528
49.5200 35.174
49.5400 34.562
49.5600 34.851
49.5800 34.374
49.6000 34.334
49.6200 34.289
49.6400 34.771
49.6600 35.146
49.6800 34.804
49.7000 34.978
49.7200 34.369
49.7400 34.262
49.7600 34.743
49.7800 34.005
49.8000 35.849
49.8200 34.823
49.8400 34.768
49.8600 34.814
49.8800 34.597
49.9000 34.879
49.9200 35.153
49.9400 34.854
49.9600 35.870
49.9800 35.221
50.0000 34.372
50.0200 34.689
50.0400 34.387
50.0600 34.183
50.0800 35.762
50.1000 34.978
50.1200 35.212
50.1400 35.235
50.1600 35.072
50.1800 35.143
50.2000 35.687
50.2200 35.964
50.2400 35.498
50.2600 35.307
50.2800 35.311
50.3000 35.592
50.3200 36.346
50.3400 35.376
50.3600 35.049
50.3800 36.278
50.4000 35.214
50.4200 34.767
50.4400 35.035
50.4600 35.556
50.4800 36.043
50.5000 35.844
50.5200 35.749
50.5400 36.502
50.5600 35.980
50.5800 37.202
50.6000 36.943
50.6200 36.646
50.6400 36.074
50.6600 36.462
50.6800 35.248
50.7000 35.615
50.7200 35.975
50.7400 36.287
50.7600 36.004
50.7800 36.625
50.8000 36.685
50.8200 36.427
50.8400 35.726
50.8600 35.946
50.8800 36.921
50.9000 36.131
50.9200 35.511
50.9400 35.898
50.9600 36.189
50.9800 36.184
51.0000 36.299
51.0200 36.121
51.0400 36.218
51.0600 36.659
51.0800 36.529
51.1000 36.700
51.1200 37.169
51.1400 36.595
51.1600 35.998
51.1800 36.653
51.2000 36.682
51.2200 36.729
51.2400 36.300
51.2600 35.519
51.2800 35.657
51.3000 36.395
51.3200 36.161
51.3400 37.915
51.3600 37.169
51.3800 36.749
51.4000 36.667
51.4200 37.106
51.4400 36.880
51.4600 36.226
51.4800 35.509
51.5000 36.446
51.5200 36.996
51.5400 36.705
51.5600 36.752
51.5800 35.577
51.6000 36.493
51.6200 36.615
51.6400 36.525
51.6600 36.807
51.6800 36.821
51.7000 36.459
51.7200 37.038
51.7400 37.174
51.7600 36.617
51.7800 36.996
51.8000 37.202
51.8200 36.982
51.8400 36.074
51.8600 36.463
51.8800 36.677
51.9000 37.148
51.9200 37.482
51.9400 37.737
51.9600 37.189
51.9800 36.666
52.0000 37.350
52.0200 37.403
52.0400 36.657
52.0600 36.602
52.0800 37.000
52.1000 37.344
52.1200 36.395
52.1400 37.287
52.1600 37.374
52.1800 37.052
52.2000 37.350
52.2200 36.493
52.2400 37.719
52.2600 36.841
52.2800 36.940
52.3000 37.284
52.3200 37.933
52.3400 36.812
52.3600 37.460
52.3800 37.838
52.4000 37.306
52.4200 36.885
52.4400 37.436
52.4600 37.518
52.4800 37.205
52.5000 37.051
52.5200 37.365
52.5400 37.741
52.5600 36.708
52.5800 38.325
52.6000 37.786
52.6200 37.606
52.6400 36.664
52.6600 37.365
52.6800 36.074
52.7000 37.256
52.7200 38.098
52.7400 37.433
52.7600 37.060
52.7800 37.117
52.8000 37.622
52.8200 37.798
52.8400 38.011
52.8600 37.280
52.8800 38.411
52.9000 38.295
52.9200 38.561
52.9400 37.915
52.9600 37.954
52.9800 37.068
53.0000 36.952
53.0200 37.741
53.0400 38.488
53.0600 38.739
53.0800 38.477
53.1000 37.518
53.1200 37.880
53.1400 37.881
53.1600 37.504
53.1800 37.803
53.2000 38.342
53.2200 37.382
53.2400 38.228
53.2600 37.505
53.2800 37.129
53.3000 37.276
53.3200 37.057
53.3400 38.104
53.3600 38.128
53.3800 37.669
53.4000 37.866
53.4200 38.064
53.4400 37.601
53.4600 38.748
53.4800 38.089
53.5000 38.689
53.5200 39.185
53.5400 38.912
53.5600 38.586
53.5800 38.131
53.6000 37.635
53.6200 38.261
53.6400 37.795
53.6600 38.229
53.6800 37.854
53.7000 38.613
53.7200 38.836
53.7400 37.584
53.7600 38.480
53.7800 39.210
53.8000 38.071
53.8200 38.200
53.8400 38.564
53.8600 38.285
53.8800 37.626
53.9000 38.051
53.9200 37.181
53.9400 38.075
53.9600 38.002
53.9800 37.739
54.0000 37.554
54.0200 37.755
54.0400 38.050
54.0600 38.651
54.0800 37.920
54.1000 37.999
54.1200 38.336
54.1400 38.649
54.1600 39.650
54.1800 39.064
54.2000 38.003
54.2200 38.120
54.2400 39.666
54.2600 38.137
54.2800 38.179
54.3000 38.620
54.3200 38.451
54.3400 38.724
54.3600 38.362
54.3800 39.178
54.4000 37.990
54.4200 38.386
54.4400 38.684
54.4600 38.993
54.4800 38.924
54.5000 38.485
54.5200 37.638
54.5400 38.235
54.5600 37.754
54.5800 38.544
54.6000 38.357
54.6200 38.586
54.6400 38.367
54.6600 39.273
54.6800 38.527
54.7000 38.588
54.7200 38.416
54.7400 37.969
54.7600 38.624
54.7800 39.490
54.8000 38.958
54.8200 39.394
54.8400 39.175
54.8600 39.529
54.8800 38.266
54.9000 38.730
54.9200 39.684
54.9400 39.188
54.9600 38.115
54.9800 38.979
55.0000 39.232
55.0200 38.577
55.0400 38.958
55.0600 38.847
55.0800 37.944
55.1000 38.984
55.1200 38.438
55.1400 39.398
55.1600 38.132
55.1800 39.442
55.2000 39.577
55.2200 38.381
55.2400 38.906
55.2600 39.417
55.2800 39.458
55.3000 39.481
55.3200 39.164
55.3400 40.752
55.3600 39.363
55.3800 39.542
55.4000 38.907
55.4200 38.932
55.4400 39.113
55.4600 39.041
55.4800 39.306
55.5000 40.062
55.5200 38.771
55.5400 39.026
55.5600 39.100
55.5800 40.093
55.6000 39.322
55.6200 39.488
55.6400 39.149
55.6600 39.137
55.6800 39.186
55.7000 39.499
55.7200 40.113
55.7400 40.252
55.7600 39.018
55.7800 39.314
55.8000 40.032
55.8200 39.198
55.8400 38.740
55.8600 40.043
55.8800 39.225
55.9000 40.250
55.9200 40.812
55.9400 40.186
55.9600 40.125
55.9800 40.701
56.0000 40.074
56.0200 40.268
56.0400 39.812
56.0600 40.484
56.0800 39.914
56.1000 40.115
56.1200 40.247
56.1400 39.985
56.1600 40.336
56.1800 40.467
56.2000 40.451
56.2200 40.442
56.2400 41.141
56.2600 41.946
56.2800 41.135
56.3000 41.273
56.3200 40.888
56.3400 42.297
56.3600 42.147
56.3800 41.410
56.4000 40.684
56.4200 40.779
56.4400 41.237
56.4600 41.757
56.4800 41.460
56.5000 40.911
56.5200 40.697
56.5400 41.268
56.5600 40.609
56.5800 41.368
56.6000 40.845
56.6200 41.522
56.6400 40.600
56.6600 40.632
56.6800 40.999
56.7000 40.794
56.7200 40.788
56.7400 41.081
56.7600 40.076
56.7800 40.691
56.8000 40.923
56.8200 40.384
56.8400 40.524
56.8600 40.838
56.8800 40.461
56.9000 40.580
56.9200 40.334
56.9400 41.126
56.9600 41.389
56.9800 40.237
57.0000 40.766
57.0200 39.443
57.0400 40.209
57.0600 40.512
57.0800 40.376
57.1000 40.830
57.1200 40.972
57.1400 41.541
57.1600 41.608
57.1800 40.822
57.2000 41.586
57.2200 41.136
57.2400 41.540
57.2600 42.005
57.2800 41.806
57.3000 41.051
57.3200 40.418
57.3400 41.777
57.3600 41.472
57.3800 40.813
57.4000 42.023
57.4200 41.887
57.4400 41.631
57.4600 40.720
57.4800 42.339
57.5000 42.422
57.5200 42.312
57.5400 41.707
57.5600 41.977
57.5800 43.331
57.6000 41.770
57.6200 42.401
57.6400 43.062
57.6600 41.610
57.6800 42.180
57.7000 41.697
57.7200 41.853
57.7400 43.061
57.7600 42.430
57.7800 43.181
57.8000 42.265
57.8200 41.579
57.8400 41.270
57.8600 42.152
57.8800 42.758
57.9000 42.912
57.9200 42.236
57.9400 41.287
57.9600 42.437
57.9800 43.292
58.0000 42.470
58.0200 43.070
58.0400 43.100
58.0600 43.340
58.0800 43.689
58.1000 44.511
58.1200 45.265
58.1400 44.451
58.1600 45.230
58.1800 45.563
58.2000 45.232
58.2200 45.999
58.2400 47.322
58.2600 46.662
58.2800 47.130
58.3000 46.935
58.3200 47.414
58.3400 47.951
58.3600 48.209
58.3800 48.529
58.4000 48.744
58.4200 49.120
58.4400 48.678
58.4600 48.654
58.4800 48.697
58.5000 49.328
58.5200 48.651
58.5400 49.394
58.5600 50.585
58.5800 49.599
58.6000 50.412
58.6200 51.159
58.6400 49.264
58.6600 49.982
58.6800 49.718
58.7000 51.741
58.7200 50.160
58.7400 50.425
58.7600 50.574
58.7800 50.929
58.8000 50.939
58.8200 49.020
58.8400 50.046
58.8600 49.991
58.8800 49.352
58.9000 48.677
58.9200 48.391
58.9400 47.928
58.9600 47.887
58.9800 47.762
59.0000 48.310
59.0200 47.374
59.0400 48.425
59.0600 47.205
59.0800 47.705
59.1000 45.867
59.1200 45.892
59.1400 45.270
59.1600 45.740
59.1800 44.332
59.2000 45.597
59.2200 43.792
59.2400 44.165
59.2600 43.807
59.2800 44.050
59.3000 44.250
59.3200 43.520
59.3400 43.308
59.3600 42.947
59.3800 42.729
59.4000 44.575
59.4200 43.672
59.4400 43.759
59.4600 43.316
59.4800 42.952
59.5000 42.971
59.5200 43.044
59.5400 42.352
59.5600 43.098
59.5800 43.518
59.6000 42.467
59.6200 42.617
59.6400 42.580
59.6600 42.727
59.6800 42.765
59.7000 43.026
59.7200 43.336
59.7400 44.083
59.7600 43.269
59.7800 43.564
59.8000 43.208
59.8200 42.824
59.8400 42.058
59.8600 43.691
59.8800 42.816
59.9000 42.742
59.9200 42.862
59.9400 43.059
59.9600 42.944
59.9800 42.309
60.0000 42.565
60.0200 43.608
60.0400 42.512
60.0600 42.809
60.0800 42.838
60.1000 42.605
60.1200 42.258
60.1400 42.468
60.1600 43.029
60.1800 43.376
60.2000 43.383
60.2200 43.844
60.2400 43.275
60.2600 43.231
60.2800 42.956
60.3000 42.155
60.3200 42.948
60.3400 43.358
60.3600 42.477
60.3800 43.559
60.4000 43.416
60.4200 43.639
60.4400 42.967
60.4600 43.361
60.4800 43.020
60.5000 43.389
60.5200 44.141
60.5400 43.213
60.5600 44.178
60.5800 42.971
60.6000 43.344
60.6200 43.913
60.6400 44.172
60.6600 42.849
60.6800 43.372
60.7000 44.041
60.7200 44.015
60.7400 43.013
60.7600 43.285
60.7800 44.117
60.8000 43.232
60.8200 42.287
60.8400 42.283
60.8600 43.447
60.8800 42.849
60.9000 43.168
60.9200 43.381
60.9400 43.157
60.9600 43.686
60.9800 43.540
61.0000 43.559
61.0200 43.296
61.0400 43.184
61.0600 42.738
61.0800 44.306
61.1000 43.821
61.1200 44.271
61.1400 43.816
61.1600 43.927
61.1800 43.434
61.2000 44.070
61.2200 44.607
61.2400 43.762
61.2600 43.582
61.2800 43.521
61.3000 43.662
61.3200 44.157
61.3400 43.142
61.3600 43.639
61.3800 44.717
61.4000 44.524
61.4200 44.810
61.4400 43.355
61.4600 44.396
61.4800 44.817
61.5000 43.227
61.5200 43.393
61.5400 43.471
61.5600 44.035
61.5800 44.132
61.6000 44.435
61.6200 44.215
61.6400 43.551
61.6600 43.321
61.6800 43.976
61.7000 44.553
61.7200 44.613
61.7400 45.221
61.7600 44.880
61.7800 45.081
61.8000 45.063
61.8200 45.483
61.8400 46.143
61.8600 45.259
61.8800 45.770
61.9000 45.664
61.9200 45.535
61.9400 46.406
61.9600 44.890
61.9800 45.092
62.0000 45.374
62.0200 46.046
62.0400 45.378
62.0600 45.271
62.0800 44.717
62.1000 45.109
62.1200 45.391
62.1400 44.809
62.1600 44.791
62.1800 44.396
62.2000 45.739
62.2200 45.361
62.2400 44.799
62.2600 44.939
62.2800 44.730
62.3000 43.655
62.3200 43.566
62.3400 44.079
62.3600 44.067
62.3800 44.030
62.4000 43.801
62.4200 43.043
62.4400 44.237
62.4600 44.373
62.4800 45.717
62.5000 44.326
62.5200 44.000
62.5400 44.559
62.5600 44.801
62.5800 44.738
62.6000 44.163
62.6200 44.531
62.6400 44.569
62.6600 44.573
62.6800 44.520
62.7000 44.441
62.7200 44.159
62.7400 45.020
62.7600 43.994
62.7800 46.226
62.8000 45.760
62.8200 45.235
62.8400 44.721
62.8600 45.390
62.8800 43.785
62.9000 44.400
62.9200 45.241
62.9400 44.406
62.9600 44.810
62.9800 44.663
63.0000 44.431
63.0200 44.493
63.0400 45.514
63.0600 44.779
63.0800 44.374
63.1000 44.392
63.1200 44.916
63.1400 45.028
63.1600 44.379
63.1800 45.723
63.2000 44.671
63.2200 46.504
63.2400 45.054
63.2600 44.334
63.2800 45.019
63.3000 45.752
63.3200 45.136
63.3400 45.477
63.3600 45.794
63.3800 45.210
63.4000 46.336
63.4200 46.261
63.4400 45.506
63.4600 44.961
63.4800 44.946
63.5000 45.454
63.5200 45.677
63.5400 45.316
63.5600 45.596
63.5800 45.325
63.6000 45.317
63.6200 45.295
63.6400 45.167
63.6600 45.471
63.6800 45.697
63.7000 45.324
63.7200 44.428
63.7400 45.467
63.7600 45.824
63.7800 46.256
63.8000 45.751
63.8200 46.326
63.8400 46.474
63.8600 45.188
63.8800 46.324
63.9000 45.709
63.9200 45.993
63.9400 45.164
63.9600 47.232
63.9800 47.050
64.0000 46.249
64.0200 47.146
64.0400 46.274
64.0600 47.033
64.0800 47.753
64.1000 47.937
64.1200 48.981
64.1400 48.038
64.1600 48.709
64.1800 49.962
64.2000 51.115
64.2200 51.379
64.2400 52.166
64.2600 52.998
64.2800 53.606
64.3000 54.699
64.3200 54.319
64.3400 54.472
64.3600 54.715
64.3800 53.655
64.4000 54.110
64.4200 53.546
64.4400 52.339
64.4600 51.766
64.4800 51.742
64.5000 51.890
64.5200 51.262
64.5400 51.378
64.5600 50.518
64.5800 49.742
64.6000 48.684
64.6200 48.513
64.6400 47.733
64.6600 47.412
64.6800 47.657
64.7000 46.760
64.7200 46.958
64.7400 46.434
64.7600 47.028
64.7800 47.007
64.8000 47.141
64.8200 47.461
64.8400 47.080
64.8600 46.049
64.8800 46.035
64.9000 46.633
64.9200 46.770
64.9400 46.469
64.9600 46.851
64.9800 47.559
65.0000 46.206
65.0200 46.597
65.0400 46.191
65.0600 46.596
65.0800 46.714
65.1000 46.819
65.1200 47.293
65.1400 46.080
65.1600 46.539
65.1800 45.888
65.2000 45.417
65.2200 46.325
65.2400 46.682
65.2600 46.487
65.2800 46.412
65.3000 46.542
65.3200 46.677
65.3400 46.088
65.3600 46.440
65.3800 46.323
65.4000 46.027
65.4200 46.211
65.4400 45.406
65.4600 45.313
65.4800 46.912
65.5000 45.527
65.5200 46.643
65.5400 46.309
65.5600 47.599
65.5800 46.683
65.6000 47.150
65.6200 46.359
65.6400 46.205
65.6600 46.958
65.6800 45.935
65.7000 45.501
65.7200 46.531
65.7400 46.033
65.7600 46.005
65.7800 47.203
65.8000 45.822
65.8200 46.899
65.8400 46.617
65.8600 47.187
65.8800 47.647
65.9000 47.809
65.9200 46.949
65.9400 47.908
65.9600 47.870
65.9800 47.135
66.0000 47.687
66.0200 47.340
66.0400 47.450
66.0600 47.317
66.0800 45.645
66.1000 46.518
66.1200 47.010
66.1400 46.824
66.1600 47.884
66.1800 47.828
66.2000 46.646
66.2200 46.820
66.2400 46.908
66.2600 47.366
66.2800 48.136
66.3000 48.126
66.3200 47.687
66.3400 48.043
66.3600 47.309
66.3800 46.966
66.4000 47.469
66.4200 47.246
66.4400 48.001
66.4600 47.234
66.4800 45.981
66.5000 46.905
66.5200 47.305
66.5400 47.814
66.5600 46.957
66.5800 47.001
66.6000 46.611
66.6200 47.587
66.6400 48.264
66.6600 47.101
66.6800 47.296
66.7000 47.489
66.7200 47.926
66.7400 47.790
66.7600 46.636
66.7800 47.252
66.8000 46.528
66.8200 45.911
66.8400 46.482
66.8600 47.525
66.8800 47.224
66.9000 47.721
66.9200 48.212
66.9400 46.997
66.9600 47.177
66.9800 47.134
67.0000 47.167
67.0200 48.211
67.0400 47.914
67.0600 48.779
67.0800 48.548
67.1000 48.254
67.1200 48.026
67.1400 47.971
67.1600 48.124
67.1800 47.741
67.2000 47.584
67.2200 49.069
67.2400 47.499
67.2600 47.781
67.2800 48.919
67.3000 49.123
67.3200 48.169
67.3400 48.842
67.3600 48.792
67.3800 48.512
67.4000 48.821
67.4200 48.467
67.4400 49.368
67.4600 48.095
67.4800 48.929
67.5000 49.898
67.5200 49.699
67.5400 48.344
67.5600 48.969
67.5800 48.602
67.6000 48.117
67.6200 49.130
67.6400 49.663
67.6600 49.081
67.6800 50.391
67.7000 50.114
67.7200 49.178
67.7400 48.945
67.7600 48.922
67.7800 48.608
67.8000 50.046
67.8200 49.896
67.8400 49.998
67.8600 49.800
67.8800 48.092
67.9000 49.347
67.9200 48.709
67.9400 48.965
67.9600 49.009
67.9800 48.976
68.0000 48.835
68.0200 49.083
68.0400 49.171
68.0600 48.176
68.0800 48.600
68.1000 49.413
68.1200 47.792
68.1400 47.888
68.1600 47.718
68.1800 48.100
68.2000 49.695
68.2200 48.954
68.2400 48.604
68.2600 48.350
68.2800 48.374
68.3000 48.316
68.3200 50.055
68.3400 48.548
68.3600 48.474
68.3800 48.433
68.4000 48.709
68.4200 48.979
68.4400 48.032
68.4600 48.290
68.4800 48.505
68.5000 49.018
68.5200 48.958
68.5400 48.688
68.5600 48.567
68.5800 49.404
68.6000 48.319
68.6200 47.819
68.6400 48.235
68.6600 49.012
68.6800 49.487
68.7000 48.900
68.7200 48.665
68.7400 48.203
68.7600 48.599
68.7800 48.692
68.8000 49.425
68.8200 48.772
68.8400 49.229
68.8600 49.936
68.8800 48.309
68.9000 48.174
68.9200 48.794
68.9400 49.317
68.9600 48.473
68.9800 48.757
69.0000 48.085
69.0200 48.497
69.0400 49.090
69.0600 49.602
69.0800 49.491
69.1000 48.928
69.1200 48.565
69.1400 49.362
69.1600 48.758
69.1800 49.674
69.2000 48.815
69.2200 48.335
69.2400 49.406
69.2600 48.741
69.2800 49.410
69.3000 48.992
69.3200 49.931
69.3400 48.561
69.3600 49.145
69.3800 47.878
69.4000 49.497
69.4200 48.716
69.4400 48.765
69.4600 49.715
69.4800 49.122
69.5000 49.094
69.5200 49.743
69.5400 48.909
69.5600 48.390
69.5800 49.253
69.6000 48.966
69.6200 49.044
69.6400 49.908
69.6600 49.768
69.6800 48.978
69.7000 49.033
69.7200 49.258
69.7400 48.156
69.7600 49.568
69.7800 49.177
69.8000 49.468
69.8200 49.878
69.8400 50.027
69.8600 49.238
69.8800 49.556
69.9000 49.176
69.9200 48.971
69.9400 48.950
69.9600 49.236
69.9800 49.238
70.0000 50.502
70.0200 49.185
70.0400 49.731
70.0600 49.854
70.0800 50.327
70.1000 50.980
70.1200 49.450
70.1400 48.256
70.1600 49.873
70.1800 49.442
70.2000 48.543
70.2200 49.157
70.2400 49.640
70.2600 49.582
70.2800 49.586
70.3000 49.363
70.3200 49.855
70.3400 49.901
70.3600 49.527
70.3800 49.414
70.4000 49.969
70.4200 50.064
70.4400 49.489
70.4600 50.885
70.4800 50.429
70.5000 49.904
70.5200 49.896
70.5400 49.324
70.5600 50.098
70.5800 50.413
70.6000 49.633
70.6200 48.861
70.6400 50.061
70.6600 50.086
70.6800 49.452
70.7000 50.122
70.7200 49.732
70.7400 50.550
70.7600 50.668
70.7800 49.833
70.8000 49.593
70.8200 49.926
70.8400 50.746
70.8600 51.407
70.8800 49.832
70.9000 49.752
70.9200 48.951
70.9400 50.485
70.9600 51.147
70.9800 49.747
71.0000 50.504
71.0200 49.763
71.0400 50.074
71.0600 50.605
71.0800 50.792
71.1000 50.553
71.1200 49.239
71.1400 51.168
71.1600 50.249
71.1800 49.683
71.2000 48.710
71.2200 50.675
71.2400 50.237
71.2600 49.549
71.2800 50.472
71.3000 50.195
71.3200 50.067
71.3400 50.965
71.3600 50.297
71.3800 49.753
71.4000 51.561
71.4200 51.177
71.4400 51.337
71.4600 50.775
71.4800 51.092
71.5000 50.927
71.5200 51.353
71.5400 50.378
71.5600 51.654
71.5800 50.847
71.6000 51.806
71.6200 50.853
71.6400 51.467
71.6600 51.750
71.6800 50.989
71.7000 51.376
71.7200 50.567
71.7400 50.915
71.7600 50.423
71.7800 50.625
71.8000 50.700
71.8200 50.093
71.8400 50.438
71.8600 51.173
71.8800 50.155
71.9000 51.075
71.9200 51.545
71.9400 50.375
71.9600 50.647
71.9800 50.763
72.0000 50.672
72.0200 50.799
72.0400 51.383
72.0600 51.140
72.0800 50.067
72.1000 50.717
72.1200 50.108
72.1400 50.823
72.1600 50.284
72.1800 51.242
72.2000 51.661
72.2200 51.024
72.2400 51.906
72.2600 51.638
72.2800 50.926
72.3000 51.822
72.3200 52.377
72.3400 52.200
72.3600 52.280
72.3800 51.031
72.4000 51.538
72.4200 51.129
72.4400 51.876
72.4600 51.307
72.4800 50.669
72.5000 50.921
72.5200 51.726
72.5400 51.790
72.5600 51.473
72.5800 52.074
72.6000 51.256
72.6200 51.618
72.6400 51.439
72.6600 50.688
72.6800 51.362
72.7000 51.431
72.7200 52.021
72.7400 50.999
72.7600 52.356
72.7800 52.779
72.8000 51.663
72.8200 51.845
72.8400 50.362
72.8600 51.745
72.8800 52.212
72.9000 52.664
72.9200 52.671
72.9400 52.563
72.9600 52.251
72.9800 51.671
73.0000 51.368
73.0200 51.307
73.0400 51.736
73.0600 51.908
73.0800 51.364
73.1000 52.328
73.1200 51.429
73.1400 51.599
73.1600 51.518
73.1800 53.198
73.2000 52.447
73.2200 52.442
73.2400 52.005
73.2600 51.717
73.2800 52.170
73.3000 52.357
73.3200 52.999
73.3400 52.689
73.3600 52.596
73.3800 52.050
73.4000 52.607
73.4200 52.085
73.4400 53.001
73.4600 51.617
73.4800 52.297
73.5000 51.603
73.5200 53.182
73.5400 52.455
73.5600 53.822
73.5800 52.880
73.6000 52.944
73.6200 52.903
73.6400 51.494
73.6600 52.707
73.6800 53.080
73.7000 52.937
73.7200 52.423
73.7400 52.047
73.7600 52.865
73.7800 52.707
73.8000 53.186
73.8200 52.575
73.8400 52.139
73.8600 52.266
73.8800 51.526
73.9000 53.244
73.9200 52.602
73.9400 52.644
73.9600 52.305
73.9800 52.760
74.0000 53.875
74.0200 53.197
74.0400 52.469
74.0600 52.857
74.0800 53.057
74.1000 53.994
74.1200 52.621
74.1400 51.931
74.1600 52.672
74.1800 52.408
74.2000 53.733
74.2200 52.822
74.2400 54.230
74.2600 53.038
74.2800 53.345
74.3000 52.876
74.3200 53.134
74.3400 53.516
74.3600 52.371
74.3800 52.941
74.4000 52.757
74.4200 52.942
74.4400 53.264
74.4600 53.371
74.4800 53.768
74.5000 53.961
74.5200 53.334
74.5400 54.144
74.5600 53.698
74.5800 54.284
74.6000 53.559
74.6200 53.955
74.6400 53.306
74.6600 53.560
74.6800 52.733
74.7000 53.666
74.7200 52.998
74.7400 53.139
74.7600 53.288
74.7800 52.764
74.8000 54.382
74.8200 53.561
74.8400 53.442
74.8600 53.145
74.8800 53.487
74.9000 53.551
74.9200 53.908
74.9400 53.196
74.9600 53.749
74.9800 53.407
75.0000 53.094
75.0200 54.762
75.0400 55.698
75.0600 53.800
75.0800 52.690
75.1000 52.949
75.1200 53.991
75.1400 54.029
75.1600 55.666
75.1800 53.771
75.2000 53.466
75.2200 53.610
75.2400 53.563
75.2600 53.818
75.2800 53.906
75.3000 54.791
75.3200 54.066
75.3400 54.273
75.3600 54.118
75.3800 53.961
75.4000 54.369
75.4200 54.402
75.4400 54.380
75.4600 53.777
75.4800 53.804
75.5000 54.164
75.5200 53.270
75.5400 53.693
75.5600 54.172
75.5800 54.161
75.6000 54.886
75.6200 54.937
75.6400 54.578
75.6600 53.784
75.6800 54.430
75.7000 55.435
75.7200 54.149
75.7400 53.868
75.7600 54.067
75.7800 54.606
75.8000 53.956
75.8200 55.698
75.8400 53.936
75.8600 54.177
75.8800 54.454
75.9000 54.907
75.9200 54.553
75.9400 54.123
75.9600 54.470
75.9800 54.635
76.0000 54.909
76.0200 54.910
76.0400 54.348
76.0600 54.585
76.0800 55.398
76.1000 55.741
76.1200 55.412
76.1400 55.222
76.1600 53.739
76.1800 54.215
76.2000 54.688
76.2200 55.668
76.2400 55.202
76.2600 55.727
76.2800 53.893
76.3000 54.967
76.3200 55.577
76.3400 55.243
76.3600 55.034
76.3800 55.081
76.4000 54.457
76.4200 54.898
76.4400 54.904
76.4600 54.312
76.4800 54.671
76.5000 55.901
76.5200 56.319
76.5400 56.468
76.5600 55.802
76.5800 55.557
76.6000 55.450
76.6200 55.355
76.6400 55.635
76.6600 55.897
76.6800 55.912
76.7000 55.194
76.7200 55.244
76.7400 54.510
76.7600 55.414
76.7800 54.553
76.8000 55.223
76.8200 55.563
76.8400 56.286
76.8600 56.304
76.8800 55.920
76.9000 55.802
76.9200 54.350
76.9400 56.633
76.9600 55.798
76.9800 54.921
77.0000 56.405
77.0200 56.188
77.0400 55.685
77.0600 55.972
77.0800 55.978
77.1000 55.332
77.1200 55.334
77.1400 55.078
77.1600 56.246
77.1800 55.379
77.2000 56.281
77.2200 54.944
77.2400 55.933
77.2600 55.838
77.2800 54.885
77.3000 55.720
77.3200 56.392
77.3400 56.031
77.3600 56.749
77.3800 56.563
77.4000 56.116
77.4200 56.810
77.4400 56.662
77.4600 56.189
77.4800 54.994
77.5000 56.004
77.5200 55.988
77.5400 55.542
77.5600 56.217
77.5800 56.666
77.6000 55.468
77.6200 56.677
77.6400 56.555
77.6600 56.917
77.6800 56.066
77.7000 56.366
77.7200 55.597
77.7400 55.559
77.7600 56.254
77.7800 57.562
77.8000 56.837
77.8200 56.912
77.8400 55.700
77.8600 57.062
77.8800 57.285
77.9000 56.121
77.9200 56.366
77.9400 55.384
77.9600 56.803
77.9800 57.561
78.0000 56.909
78.0200 56.009
78.0400 56.634
78.0600 57.360
78.0800 56.357
78.1000 56.833
78.1200 56.518
78.1400 56.359
78.1600 56.366
78.1800 55.905
78.2000 55.694
78.2200 56.392
78.2400 56.723
78.2600 56.929
78.2800 57.615
78.3000 57.847
78.3200 57.524
78.3400 57.586
78.3600 56.217
78.3800 56.511
78.4000 57.300
78.4200 56.239
78.4400 56.783
78.4600 57.220
78.4800 56.546
78.5000 56.344
78.5200 56.862
78.5400 57.031
78.5600 56.920
78.5800 58.362
78.6000 57.490
78.6200 57.864
78.6400 56.796
78.6600 57.428
78.6800 55.927
78.7000 56.996
78.7200 56.560
78.7400 57.568
78.7600 57.685
78.7800 57.695
78.8000 58.061
78.8200 56.088
78.8400 56.049
78.8600 57.436
78.8800 57.515
78.9000 58.088
78.9200 55.948
78.9400 56.607
78.9600 57.732
78.9800 57.266
79.0000 56.873
79.0200 57.648
79.0400 58.144
79.0600 57.339
79.0800 57.091
79.1000 57.172
79.1200 56.251
79.1400 57.253
79.1600 56.588
79.1800 57.470
79.2000 56.070
79.2200 57.983
79.2400 58.328
79.2600 57.263
79.2800 57.510
79.3000 57.410
79.3200 57.619
79.3400 57.025
79.3600 57.146
79.3800 56.958
79.4000 58.127
79.4200 57.561
79.4400 58.349
79.4600 57.287
79.4800 57.304
79.5000 56.501
79.5200 58.597
79.5400 58.909
79.5600 58.495
79.5800 57.733
79.6000 58.396
79.6200 58.059
79.6400 58.767
79.6600 57.593
79.6800 57.409
79.7000 58.776
79.7200 58.999
79.7400 58.072
79.7600 57.407
79.7800 58.729
79.8000 58.906
79.8200 59.052
79.8400 59.601
79.8600 58.928
79.8800 59.340
79.9000 57.152
79.9200 57.559
79.9400 58.153
79.9600 58.135
79.9800 58.134
80.0000 58.833
