'Id: "" Comment: "" Operator: "Lab Manager" Anode: "Cu" Scantype: "Coupled TwoTheta/Theta" TimePerStep: "113.4655" X: "9999" Y: "9999" Z: "-2.700037" 
20.0000 7.498
20.0200 7.139
20.0400 7.402
20.0600 7.579
20.0800 7.001
20.1000 7.249
20.1200 7.061
20.1400 7.013
20.1600 7.362
20.1800 7.443
20.2000 7.619
20.2200 7.694
20.2400 7.240
20.2600 7.577
20.2800 7.437
20.3000 7.623
20.3200 7.302
20.3400 7.286
20.3600 7.519
20.3800 7.708
20.4000 7.645
20.4200 7.544
20.4400 7.789
20.4600 8.168
20.4800 7.900
20.5000 7.505
20.5200 7.819
20.5400 7.764
20.5600 8.208
20.5800 7.586
20.6000 7.864
20.6200 7.890
20.6400 8.217
20.6600 8.017
20.6800 7.687
20.7000 8.257
20.7200 8.486
20.7400 7.957
20.7600 7.927
20.7800 7.962
20.8000 8.141
20.8200 8.318
20.8400 8.090
20.8600 8.139
20.8800 8.482
20.9000 8.276
20.9200 8.417
20.9400 8.114
20.9600 8.422
20.9800 7.950
21.0000 7.928
21.0200 8.074
21.0400 8.152
21.0600 8.094
21.0800 8.199
21.1000 8.642
21.1200 8.184
21.1400 8.996
21.1600 8.474
21.1800 8.426
21.2000 8.512
21.2200 8.508
21.2400 8.458
21.2600 8.683
21.2800 8.661
21.3000 8.563
21.3200 8.457
21.3400 8.493
21.3600 8.346
21.3800 8.723
21.4000 8.948
21.4200 8.650
21.4400 8.593
21.4600 8.457
21.4800 8.360
21.5000 8.996
21.5200 8.502
21.5400 8.789
21.5600 8.652
21.5800 8.579
21.6000 8.891
21.6200 8.785
21.6400 8.985
21.6600 8.463
21.6800 8.465
21.7000 9.231
21.7200 8.489
21.7400 9.085
21.7600 9.543
21.7800 9.177
21.8000 8.750
21.8200 8.552
21.8400 9.346
21.8600 9.268
21.8800 9.116
21.9000 9.296
21.9200 9.452
21.9400 8.977
21.9600 9.356
21.9800 8.863
22.0000 8.700
22.0200 8.881
22.0400 8.932
22.0600 8.956
22.0800 9.014
22.1000 8.951
22.1200 9.134
22.1400 9.506
22.1600 9.415
22.1800 9.037
22.2000 9.269
22.2200 8.989
22.2400 9.651
22.2600 9.267
22.2800 9.421
22.3000 8.839
22.3200 9.358
22.3400 9.560
22.3600 9.117
22.3800 9.606
22.4000 9.441
22.4200 9.593
22.4400 9.469
22.4600 9.466
22.4800 9.510
22.5000 9.455
22.5200 9.289
22.5400 9.787
22.5600 9.424
22.5800 9.206
22.6000 9.041
22.6200 9.503
22.6400 9.708
22.6600 9.992
22.6800 9.935
22.7000 9.598
22.7200 9.487
22.7400 9.633
22.7600 9.731
22.7800 9.897
22.8000 9.849
22.8200 9.577
22.8400 9.564
22.8600 10.045
22.8800 9.346
22.9000 9.727
22.9200 9.614
22.9400 9.777
22.9600 9.592
22.9800 9.936
23.0000 9.801
23.0200 9.997
23.0400 9.567
23.0600 9.648
23.0800 9.953
23.1000 9.642
23.1200 9.738
23.1400 9.762
23.1600 9.792
23.1800 9.875
23.2000 9.671
23.2200 10.319
23.2400 10.265
23.2600 10.105
23.2800 10.482
23.3000 10.296
23.3200 9.911
23.3400 9.544
23.3600 9.833
23.3800 9.903
23.4000 10.133
23.4200 10.342
23.4400 10.405
23.4600 10.037
23.4800 10.375
23.5000 10.174
23.5200 10.466
23.5400 10.249
23.5600 10.409
23.5800 10.379
23.6000 10.145
23.6200 10.184
23.6400 10.376
23.6600 10.074
23.6800 10.434
23.7000 9.984
23.7200 10.193
23.7400 10.613
23.7600 10.513
23.7800 10.315
23.8000 10.381
23.8200 10.597
23.8400 10.730
23.8600 10.042
23.8800 10.381
23.9000 10.290
23.9200 10.017
23.9400 10.759
23.9600 10.579
23.9800 10.706
24.0000 10.545
24.0200 10.522
24.0400 10.299
24.0600 10.381
24.0800 11.036
24.1000 10.619
24.1200 10.681
24.1400 10.702
24.1600 10.884
24.1800 11.115
24.2000 10.717
24.2200 10.980
24.2400 10.549
24.2600 10.462
24.2800 10.509
24.3000 10.719
24.3200 10.329
24.3400 10.667
24.3600 11.013
24.3800 11.332
24.4000 10.916
24.4200 11.616
24.4400 11.280
24.4600 10.794
24.4800 11.167
24.5000 11.044
24.5200 10.985
24.5400 10.389
24.5600 10.336
24.5800 11.138
24.6000 11.076
24.6200 10.812
24.6400 11.320
24.6600 11.392
24.6800 10.708
24.7000 10.672
24.7200 11.366
24.7400 11.550
24.7600 11.041
24.7800 11.834
24.8000 11.195
24.8200 10.961
24.8400 11.442
24.8600 11.644
24.8800 11.722
24.9000 11.502
24.9200 11.363
24.9400 11.292
24.9600 11.206
24.9800 11.164
25.0000 11.584
25.0200 11.803
25.0400 11.393
25.0600 11.603
25.0800 11.406
25.1000 11.239
25.1200 11.265
25.1400 11.458
25.1600 11.269
25.1800 11.440
25.2000 11.717
25.2200 11.537
25.2400 11.355
25.2600 11.298
25.2800 11.412
25.3000 11.164
25.3200 11.790
25.3400 11.739
25.3600 12.041
25.3800 11.825
25.4000 11.811
25.4200 11.261
25.4400 11.207
25.4600 11.502
25.4800 11.689
25.5000 11.516
25.5200 11.563
25.5400 11.350
25.5600 12.062
25.5800 12.000
25.6000 11.240
25.6200 11.505
25.6400 11.957
25.6600 12.051
25.6800 12.459
25.7000 11.777
25.7200 11.649
25.7400 11.882
25.7600 12.453
25.7800 11.823
25.8000 12.237
25.8200 12.152
25.8400 12.242
25.8600 12.083
25.8800 11.882
25.9000 12.282
25.9200 11.667
25.9400 11.423
25.9600 11.547
25.9800 11.281
26.0000 12.264
26.0200 12.516
26.0400 11.934
26.0600 11.697
26.0800 12.113
26.1000 12.191
26.1200 12.364
26.1400 12.098
26.1600 12.402
26.1800 12.329
26.2000 12.134
26.2200 12.009
26.2400 12.379
26.2600 12.183
26.2800 12.707
26.3000 12.207
26.3200 11.941
26.3400 12.722
26.3600 12.703
26.3800 12.195
26.4000 12.150
26.4200 12.581
26.4400 12.005
26.4600 12.069
26.4800 12.450
26.5000 12.866
26.5200 12.712
26.5400 12.697
26.5600 12.528
26.5800 12.144
26.6000 12.810
26.6200 13.305
26.6400 12.663
26.6600 12.783
26.6800 12.439
26.7000 12.665
26.7200 12.693
26.7400 12.729
26.7600 12.714
26.7800 12.645
26.8000 12.662
26.8200 12.344
26.8400 13.281
26.8600 13.144
26.8800 12.377
26.9000 12.481
26.9200 12.919
26.9400 13.079
26.9600 12.766
26.9800 12.839
27.0000 12.769
27.0200 13.000
27.0400 13.260
27.0600 13.534
27.0800 13.512
27.1000 12.363
27.1200 13.245
27.1400 13.455
27.1600 12.899
27.1800 12.683
27.2000 13.009
27.2200 13.243
27.2400 13.252
27.2600 12.828
27.2800 13.218
27.3000 12.786
27.3200 12.878
27.3400 13.128
27.3600 13.039
27.3800 12.979
27.4000 13.353
27.4200 13.311
27.4400 13.210
27.4600 12.514
27.4800 13.547
27.5000 13.752
27.5200 13.212
27.5400 13.462
27.5600 13.051
27.5800 13.444
27.6000 13.717
27.6200 13.419
27.6400 13.649
27.6600 13.130
27.6800 13.714
27.7000 13.605
27.7200 13.771
27.7400 13.605
27.7600 13.734
27.7800 13.419
27.8000 13.357
27.8200 13.328
27.8400 13.583
27.8600 13.232
27.8800 13.413
27.9000 13.660
27.9200 13.507
27.9400 14.241
27.9600 13.553
27.9800 13.851
28.0000 14.036
28.0200 14.164
28.0400 13.936
28.0600 13.806
28.0800 13.476
28.1000 13.623
28.1200 13.772
28.1400 13.905
28.1600 13.919
28.1800 14.033
28.2000 13.643
28.2200 13.981
28.2400 13.859
28.2600 13.954
28.2800 13.826
28.3000 13.857
28.3200 14.016
28.3400 14.320
28.3600 14.098
28.3800 14.165
28.4000 14.374
28.4200 14.186
28.4400 14.448
28.4600 14.222
28.4800 14.262
28.5000 14.787
28.5200 14.393
28.5400 14.735
28.5600 14.545
28.5800 14.676
28.6000 13.974
28.6200 14.293
28.6400 14.126
28.6600 14.140
28.6800 14.157
28.7000 14.255
28.7200 13.700
28.7400 14.337
28.7600 14.256
28.7800 14.272
28.8000 14.530
28.8200 14.288
28.8400 15.561
28.8600 14.645
28.8800 14.604
28.9000 14.146
28.9200 14.656
28.9400 14.176
28.9600 14.582
28.9800 14.813
29.0000 14.688
29.0200 14.906
29.0400 14.569
29.0600 14.625
29.0800 14.703
29.1000 14.937
29.1200 15.247
29.1400 14.196
29.1600 14.838
29.1800 14.716
29.2000 15.531
29.2200 15.027
29.2400 15.159
29.2600 14.801
29.2800 15.223
29.3000 14.885
29.3200 14.720
29.3400 15.040
29.3600 15.431
29.3800 15.287
29.4000 14.735
29.4200 15.012
29.4400 14.596
29.4600 15.279
29.4800 15.327
29.5000 15.293
29.5200 15.241
29.5400 15.464
29.5600 15.176
29.5800 15.800
29.6000 15.195
29.6200 15.721
29.6400 16.661
29.6600 16.238
29.6800 16.001
29.7000 16.101
29.7200 16.332
29.7400 15.773
29.7600 15.918
29.7800 15.890
29.8000 15.873
29.8200 15.899
29.8400 15.807
29.8600 15.929
29.8800 15.587
29.9000 15.306
29.9200 15.728
29.9400 15.455
29.9600 15.482
29.9800 15.976
30.0000 15.761
30.0200 15.808
30.0400 16.039
30.0600 16.345
30.0800 16.328
30.1000 16.304
30.1200 15.088
30.1400 15.776
30.1600 16.127
30.1800 15.730
30.2000 15.907
30.2200 15.638
30.2400 15.876
30.2600 15.942
30.2800 15.863
30.3000 16.030
30.3200 16.025
30.3400 16.158
30.3600 16.105
30.3800 16.342
30.4000 15.942
30.4200 16.248
30.4400 16.010
30.4600 15.721
30.4800 15.631
30.5000 15.848
30.5200 15.623
30.5400 15.453
30.5600 15.473
30.5800 16.066
30.6000 15.803
30.6200 15.835
30.6400 16.074
30.6600 16.468
30.6800 16.415
30.7000 16.059
30.7200 16.307
30.7400 16.547
30.7600 17.413
30.7800 16.653
30.8000 16.730
30.8200 16.291
30.8400 15.515
30.8600 16.367
30.8800 16.820
30.9000 16.683
30.9200 16.658
30.9400 16.305
30.9600 16.761
30.9800 16.272
31.0000 16.456
31.0200 16.623
31.0400 16.675
31.0600 16.465
31.0800 16.774
31.1000 16.473
31.1200 16.646
31.1400 17.019
31.1600 16.494
31.1800 16.412
31.2000 16.514
31.2200 16.529
31.2400 17.235
31.2600 17.023
31.2800 17.405
31.3000 16.934
31.3200 16.544
31.3400 17.243
31.3600 16.795
31.3800 16.924
31.4000 16.479
31.4200 17.058
31.4400 16.625
31.4600 16.657
31.4800 17.255
31.5000 16.635
31.5200 16.906
31.5400 16.700
31.5600 17.341
31.5800 17.283
31.6000 16.975
31.6200 17.465
31.6400 17.111
31.6600 17.685
31.6800 17.245
31.7000 17.181
31.7200 17.293
31.7400 17.225
31.7600 16.960
31.7800 17.209
31.8000 17.290
31.8200 17.090
31.8400 16.766
31.8600 17.288
31.8800 17.650
31.9000 17.236
31.9200 17.635
31.9400 17.420
31.9600 17.548
31.9800 17.133
32.0000 17.364
32.0200 17.430
32.0400 17.600
32.0600 17.416
32.0800 17.986
32.1000 17.438
32.1200 17.068
32.1400 18.214
32.1600 17.683
32.1800 17.889
32.2000 17.817
32.2200 17.705
32.2400 17.958
32.2600 17.256
32.2800 17.550
32.3000 17.765
32.3200 18.051
32.3400 18.008
32.3600 17.514
32.3800 17.816
32.4000 17.902
32.4200 18.198
32.4400 17.510
32.4600 17.469
32.4800 18.136
32.5000 18.292
32.5200 18.674
32.5400 17.988
32.5600 17.889
32.5800 18.474
32.6000 17.275
32.6200 17.674
32.6400 17.893
32.6600 18.237
32.6800 18.087
32.7000 18.451
32.7200 18.466
32.7400 18.398
32.7600 18.794
32.7800 18.053
32.8000 18.086
32.8200 17.421
32.8400 18.317
32.8600 18.040
32.8800 18.592
32.9000 18.358
32.9200 17.905
32.9400 18.139
32.9600 18.318
32.9800 19.110
33.0000 18.849
33.0200 18.117
33.0400 18.560
33.0600 18.965
33.0800 18.612
33.1000 18.350
33.1200 19.208
33.1400 18.569
33.1600 18.199
33.1800 19.164
33.2000 18.694
33.2200 18.298
33.2400 18.511
33.2600 17.945
33.2800 18.738
33.3000 18.446
33.3200 18.528
33.3400 18.924
33.3600 18.547
33.3800 19.224
33.4000 18.714
33.4200 18.494
33.4400 18.701
33.4600 18.681
33.4800 18.867
33.5000 18.930
33.5200 19.071
33.5400 19.132
33.5600 19.196
33.5800 19.509
33.6000 19.735
33.6200 18.701
33.6400 18.921
33.6600 19.100
33.6800 19.347
33.7000 19.491
33.7200 19.547
33.7400 19.472
33.7600 19.544
33.7800 19.192
33.8000 19.238
33.8200 18.844
33.8400 18.607
33.8600 18.895
33.8800 19.503
33.9000 19.887
33.9200 19.425
33.9400 19.548
33.9600 20.074
33.9800 19.096
34.0000 19.762
34.0200 19.441
34.0400 19.919
34.0600 20.293
34.0800 20.184
34.1000 19.770
34.1200 19.344
34.1400 19.726
34.1600 20.212
34.1800 20.261
34.2000 20.384
34.2200 19.762
34.2400 18.980
34.2600 19.351
34.2800 19.399
34.3000 20.275
34.3200 20.371
34.3400 20.479
34.3600 20.190
34.3800 20.735
34.4000 19.894
34.4200 20.272
34.4400 20.616
34.4600 20.428
34.4800 19.965
34.5000 20.358
34.5200 19.799
34.5400 20.554
34.5600 20.450
34.5800 20.080
34.6000 20.214
34.6200 20.257
34.6400 20.156
34.6600 20.781
34.6800 20.534
34.7000 19.985
34.7200 20.639
34.7400 20.035
34.7600 20.030
34.7800 19.475
34.8000 21.209
34.8200 21.097
34.8400 21.863
34.8600 20.377
34.8800 21.378
34.9000 21.943
34.9200 21.925
34.9400 22.895
34.9600 23.454
34.9800 23.378
35.0000 22.589
35.0200 22.861
35.0400 23.197
35.0600 22.744
35.0800 22.038
35.1000 21.663
35.1200 22.555
35.1400 22.656
35.1600 22.322
35.1800 21.645
35.2000 20.510
35.2200 20.805
35.2400 21.245
35.2600 20.898
35.2800 20.675
35.3000 20.627
35.3200 21.235
35.3400 21.220
35.3600 21.108
35.3800 21.100
35.4000 21.164
35.4200 20.699
35.4400 21.250
35.4600 21.129
35.4800 21.407
35.5000 20.850
35.5200 21.507
35.5400 21.515
35.5600 21.588
35.5800 21.381
35.6000 21.865
35.6200 21.351
35.6400 20.808
35.6600 21.689
35.6800 21.486
35.7000 21.090
35.7200 20.815
35.7400 20.971
35.7600 21.222
35.7800 20.742
35.8000 21.355
35.8200 21.631
35.8400 21.515
35.8600 21.510
35.8800 22.095
35.9000 21.735
35.9200 21.768
35.9400 22.051
35.9600 21.934
35.9800 21.240
36.0000 21.786
36.0200 21.269
36.0400 21.389
36.0600 21.223
36.0800 22.037
36.1000 21.231
36.1200 21.965
36.1400 21.591
36.1600 21.931
36.1800 21.491
36.2000 21.592
36.2200 22.064
36.2400 21.969
36.2600 21.438
36.2800 21.564
36.3000 22.049
36.3200 21.706
36.3400 21.890
36.3600 21.595
36.3800 22.345
36.4000 22.371
36.4200 22.772
36.4400 22.072
36.4600 22.538
36.4800 21.581
36.5000 22.194
36.5200 22.249
36.5400 22.284
36.5600 22.313
36.5800 22.909
36.6000 22.505
36.6200 22.954
36.6400 23.233
36.6600 22.749
36.6800 23.307
36.7000 23.159
36.7200 22.901
36.7400 23.172
36.7600 23.024
36.7800 23.508
36.8000 22.588
36.8200 22.942
36.8400 22.781
36.8600 22.750
36.8800 23.635
36.9000 23.337
36.9200 22.843
36.9400 22.555
36.9600 22.616
36.9800 23.443
37.0000 23.880
37.0200 24.100
37.0400 23.945
37.0600 24.484
37.0800 24.155
37.1000 23.001
37.1200 23.484
37.1400 23.638
37.1600 23.764
37.1800 23.559
37.2000 23.507
37.2200 23.309
37.2400 24.444
37.2600 24.520
37.2800 23.980
37.3000 24.205
37.3200 24.105
37.3400 24.380
37.3600 23.529
37.3800 23.706
37.4000 24.253
37.4200 24.403
37.4400 24.510
37.4600 24.348
37.4800 24.621
37.5000 24.710
37.5200 24.519
37.5400 24.527
37.5600 24.409
37.5800 24.408
37.6000 24.437
37.6200 24.098
37.6400 24.497
37.6600 24.356
37.6800 24.244
37.7000 24.928
37.7200 23.867
37.7400 24.029
37.7600 24.328
37.7800 24.223
37.8000 24.918
37.8200 24.130
37.8400 24.489
37.8600 24.165
37.8800 24.780
37.9000 25.319
37.9200 24.691
37.9400 25.023
37.9600 25.192
37.9800 25.298
38.0000 24.751
38.0200 25.066
38.0400 24.851
38.0600 24.330
38.0800 24.940
38.1000 24.675
38.1200 25.026
38.1400 25.389
38.1600 25.428
38.1800 26.046
38.2000 25.018
38.2200 24.877
38.2400 25.526
38.2600 25.174
38.2800 25.897
38.3000 25.886
38.3200 25.403
38.3400 25.201
38.3600 25.997
38.3800 25.159
38.4000 25.497
38.4200 25.450
38.4400 25.945
38.4600 25.529
38.4800 26.022
38.5000 25.707
38.5200 26.089
38.5400 25.910
38.5600 26.080
38.5800 25.596
38.6000 26.206
38.6200 26.664
38.6400 26.140
38.6600 26.314
38.6800 26.396
38.7000 25.824
38.7200 25.863
38.7400 25.342
38.7600 25.154
38.7800 25.929
38.8000 25.569
38.8200 26.913
38.8400 26.260
38.8600 25.253
38.8800 25.382
38.9000 25.888
38.9200 26.350
38.9400 26.692
38.9600 26.630
38.9800 27.361
39.0000 26.887
39.0200 26.330
39.0400 26.767
39.0600 26.313
39.0800 25.507
39.1000 26.165
39.1200 26.575
39.1400 27.312
39.1600 25.872
39.1800 26.259
39.2000 27.022
39.2200 26.330
39.2400 26.811
39.2600 27.461
39.2800 26.583
39.3000 26.187
39.3200 26.754
39.3400 26.761
39.3600 26.757
39.3800 26.992
39.4000 26.363
39.4200 27.377
39.4400 27.355
39.4600 27.691
39.4800 26.523
39.5000 27.379
39.5200 27.349
39.5400 26.578
39.5600 27.200
39.5800 26.887
39.6000 27.237
39.6200 26.354
39.6400 26.888
39.6600 27.420
39.6800 28.326
39.7000 27.549
39.7200 27.253
39.7400 27.509
39.7600 27.691
39.7800 27.783
39.8000 26.500
39.8200 27.187
39.8400 27.122
39.8600 26.744
39.8800 26.818
39.9000 27.276
39.9200 27.960
39.9400 27.106
39.9600 26.972
39.9800 27.201
40.0000 28.002
40.0200 27.277
40.0400 27.667
40.0600 27.713
40.0800 27.532
40.1000 28.049
40.1200 28.204
40.1400 27.661
40.1600 26.989
40.1800 28.306
40.2000 27.570
40.2200 27.994
40.2400 27.462
40.2600 27.999
40.2800 27.801
40.3000 28.715
40.3200 28.028
40.3400 27.840
40.3600 28.052
40.3800 27.961
40.4000 27.655
40.4200 27.767
40.4400 27.529
40.4600 28.246
40.4800 28.715
40.5000 28.143
40.5200 28.100
40.5400 28.829
40.5600 28.356
40.5800 28.567
40.6000 28.153
40.6200 27.635
40.6400 28.056
40.6600 27.588
40.6800 28.091
40.7000 28.014
40.7200 28.139
40.7400 28.535
40.7600 28.377
40.7800 28.521
40.8000 28.618
40.8200 27.967
40.8400 28.816
40.8600 28.394
40.8800 27.468
40.9000 28.121
40.9200 28.576
40.9400 28.421
40.9600 28.078
40.9800 28.367
41.0000 28.159
41.0200 28.089
41.0400 28.421
41.0600 28.290
41.0800 28.566
41.1000 28.627
41.1200 28.439
41.1400 28.627
41.1600 28.661
41.1800 28.772
41.2000 28.547
41.2200 28.249
41.2400 27.988
41.2600 29.179
41.2800 29.259
41.3000 29.398
41.3200 29.306
41.3400 28.337
41.3600 27.986
41.3800 28.557
41.4000 28.781
41.4200 28.365
41.4400 29.736
41.4600 28.722
41.4800 28.480
41.5000 29.222
41.5200 28.809
41.5400 29.076
41.5600 29.158
41.5800 28.906
41.6000 29.759
41.6200 29.243
41.6400 29.155
41.6600 28.340
41.6800 29.012
41.7000 28.744
41.7200 29.203
41.7400 28.486
41.7600 28.257
41.7800 29.114
41.8000 29.592
41.8200 30.131
41.8400 29.191
41.8600 28.918
41.8800 29.200
41.9000 29.026
41.9200 28.264
41.9400 28.804
41.9600 29.230
41.9800 29.908
42.0000 28.963
42.0200 29.131
42.0400 29.663
42.0600 28.786
42.0800 29.269
42.1000 30.078
42.1200 30.193
42.1400 29.410
42.1600 29.540
42.1800 29.770
42.2000 29.957
42.2200 29.889
42.2400 30.980
42.2600 30.514
42.2800 29.840
42.3000 30.350
42.3200 29.252
42.3400 30.308
42.3600 30.261
42.3800 29.861
42.4000 30.430
42.4200 30.443
42.4400 30.643
42.4600 30.444
42.4800 31.225
42.5000 31.335
42.5200 30.682
42.5400 31.018
42.5600 31.141
42.5800 31.609
42.6000 31.809
42.6200 31.288
42.6400 31.830
42.6600 31.625
42.6800 30.983
42.7000 31.318
42.7200 31.571
42.7400 30.695
42.7600 30.221
42.7800 31.621
42.8000 30.089
42.8200 30.379
42.8400 30.255
42.8600 30.685
42.8800 30.446
42.9000 30.078
42.9200 29.977
42.9400 30.071
42.9600 30.431
42.9800 30.175
43.0000 30.498
43.0200 30.422
43.0400 30.356
43.0600 30.705
43.0800 30.727
43.1000 29.753
43.1200 31.229
43.1400 31.175
43.1600 31.051
43.1800 30.525
43.2000 30.287
43.2200 30.442
43.2400 30.734
43.2600 30.302
43.2800 29.830
43.3000 30.624
43.3200 31.264
43.3400 31.127
43.3600 31.090
43.3800 29.981
43.4000 30.424
43.4200 30.846
43.4400 31.140
43.4600 30.214
43.4800 30.732
43.5000 30.600
43.5200 29.871
43.5400 29.836
43.5600 30.801
43.5800 30.579
43.6000 31.406
43.6200 31.438
43.6400 31.408
43.6600 31.443
43.6800 31.679
43.7000 31.546
43.7200 31.845
43.7400 31.438
43.7600 31.589
43.7800 32.312
43.8000 32.609
43.8200 32.315
43.8400 32.294
43.8600 32.490
43.8800 32.899
43.9000 33.279
43.9200 32.637
43.9400 32.993
43.9600 34.213
43.9800 34.730
44.0000 35.990
44.0200 37.289
44.0400 40.030
44.0600 45.062
44.0800 49.298
44.1000 54.742
44.1200 58.416
44.1400 60.684
44.1600 61.226
44.1800 58.502
44.2000 57.463
44.2200 55.440
44.2400 53.159
44.2600 52.064
44.2800 48.719
44.3000 45.101
44.3200 41.693
44.3400 38.885
44.3600 37.584
44.3800 36.142
44.4000 34.933
44.4200 33.863
44.4400 33.248
44.4600 32.764
44.4800 32.456
44.5000 32.105
44.5200 32.783
44.5400 32.514
44.5600 33.184
44.5800 32.838
44.6000 31.934
44.6200 31.368
44.6400 32.179
44.6600 32.717
44.6800 32.146
44.7000 32.000
44.7200 32.595
44.7400 33.066
44.7600 33.390
44.7800 36.257
44.8000 39.387
44.8200 42.195
44.8400 41.947
44.8600 40.536
44.8800 40.217
44.9000 40.315
44.9200 41.105
44.9400 42.717
44.9600 42.196
44.9800 40.155
45.0000 41.806
45.0200 41.471
45.0400 41.750
45.0600 40.672
45.0800 40.666
45.1000 40.514
45.1200 40.519
45.1400 40.540
45.1600 40.884
45.1800 39.984
45.2000 40.121
45.2200 40.412
45.2400 40.054
45.2600 38.704
45.2800 37.903
45.3000 37.837
45.3200 36.746
45.3400 36.877
45.3600 35.958
45.3800 35.874
45.4000 35.338
45.4200 35.021
45.4400 34.106
45.4600 33.961
45.4800 33.172
45.5000 33.328
45.5200 32.458
45.5400 32.191
45.5600 32.235
45.5800 32.269
45.6000 32.485
45.6200 32.361
45.6400 32.539
45.6600 31.862
45.6800 32.346
45.7000 32.004
45.7200 31.840
45.7400 31.977
45.7600 32.304
45.7800 32.159
45.8000 32.457
45.8200 31.945
45.8400 31.768
45.8600 31.970
45.8800 32.697
45.9000 32.654
45.9200 31.512
45.9400 31.813
45.9600 31.442
45.9800 32.326
46.0000 32.304
46.0200 32.518
46.0400 32.248
46.0600 32.671
46.0800 32.198
46.1000 31.818
46.1200 32.309
46.1400 32.088
46.1600 32.252
46.1800 31.873
46.2000 32.879
46.2200 31.892
46.2400 32.595
46.2600 32.583
46.2800 31.771
46.3000 33.079
46.3200 32.404
46.3400 33.089
46.3600 32.325
46.3800 32.568
46.4000 32.538
46.4200 32.203
46.4400 32.681
46.4600 32.613
46.4800 32.278
46.5000 31.789
46.5200 33.187
46.5400 32.340
46.5600 32.756
46.5800 33.150
46.6000 33.115
46.6200 32.663
46.6400 32.376
46.6600 32.046
46.6800 32.187
46.7000 31.990
46.7200 32.194
46.7400 32.670
46.7600 32.764
46.7800 32.421
46.8000 31.265
46.8200 32.494
46.8400 31.961
46.8600 33.410
46.8800 33.674
46.9000 32.592
46.9200 32.816
46.9400 32.858
46.9600 31.962
46.9800 32.122
47.0000 33.142
47.0200 32.413
47.0400 33.263
47.0600 33.883
47.0800 33.682
47.1000 32.910
47.1200 33.008
47.1400 32.121
47.1600 32.572
47.1800 33.032
47.2000 33.088
47.2200 33.279
47.2400 32.923
47.2600 33.490
47.2800 33.150
47.3000 32.656
47.3200 32.236
47.3400 32.959
47.3600 33.097
47.3800 32.164
47.4000 31.837
47.4200 32.533
47.4400 32.460
47.4600 32.419
47.4800 32.434
47.5000 33.187
47.5200 33.750
47.5400 33.499
47.5600 33.452
47.5800 32.891
47.6000 33.187
47.6200 33.037
47.6400 32.719
47.6600 33.686
47.6800 33.069
47.7000 33.167
47.7200 32.985
47.7400 33.552
47.7600 33.484
47.7800 33.048
47.8000 33.055
47.8200 33.422
47.8400 32.973
47.8600 33.621
47.8800 33.103
47.9000 33.447
47.9200 33.433
47.9400 33.444
47.9600 33.460
47.9800 33.571
48.0000 33.425
48.0200 33.033
48.0400 33.331
48.0600 33.401
48.0800 33.781
48.1000 34.692
48.1200 33.895
48.1400 33.550
48.1600 33.561
48.1800 33.736
48.2000 33.676
48.2200 33.889
48.2400 33.727
48.2600 33.711
48.2800 33.636
48.3000 34.154
48.3200 33.609
48.3400 33.863
48.3600 33.682
48.3800 34.024
48.4000 34.059
48.4200 33.513
48.4400 34.985
48.4600 34.269
48.4800 33.790
48.5000 33.201
48.5200 33.493
48.5400 33.979
48.5600 33.561
48.5800 34.317
48.6000 33.339
48.6200 33.117
48.6400 33.091
48.6600 32.555
48.6800 34.713
48.7000 34.292
48.7200 34.546
48.7400 34.903
48.7600 34.045
48.7800 33.735
48.8000 33.101
48.8200 33.642
48.8400 34.227
48.8600 34.488
48.8800 34.256
48.9000 34.173
48.9200 33.953
48.9400 33.970
48.9600 34.593
48.9800 34.498
49.0000 34.899
49.0200 34.450
49.0400 34.758
49.0600 33.201
49.0800 32.914
49.1000 34.601
49.1200 33.881
49.1400 34.594
49.1600 33.768
49.1800 33.892
49.2000 33.995
49.2200 34.288
49.2400 34.982
49.2600 34.256
49.2800 33.816
49.3000 34.440
49.3200 34.525
49.3400 33.570
49.3600 34.792
49.3800 34.485
49.4000 34.722
49.4200 34.297
49.4400 34.944
49.4600 35.553
49.4800 35.533
49.5000 34.835
49.5200 34.216
49.5400 34.825
49.5600 34.813
49.5800 34.442
49.6000 34.229
49.6200 34.181
49.6400 34.678
49.6600 34.361
49.6800 34.660
49.7000 35.340
49.7200 34.540
49.7400 34.818
49.7600 35.213
49.7800 34.873
49.8000 34.768
49.8200 34.920
49.8400 35.076
49.8600 34.873
49.8800 34.108
49.9000 34.597
49.9200 34.908
49.9400 35.678
49.9600 35.495
49.9800 36.326
50.0000 36.025
50.0200 34.671
50.0400 35.182
50.0600 36.434
50.0800 35.757
50.1000 35.176
50.1200 34.574
50.1400 35.498
50.1600 35.511
50.1800 34.968
50.2000 34.628
50.2200 34.648
50.2400 35.254
50.2600 35.230
50.2800 35.499
50.3000 35.620
50.3200 35.486
50.3400 35.691
50.3600 35.672
50.3800 36.123
50.4000 36.561
50.4200 36.690
50.4400 35.516
50.4600 35.396
50.4800 36.314
50.5000 36.864
50.5200 35.684
50.5400 36.476
50.5600 36.572
50.5800 35.972
50.6000 35.262
50.6200 35.147
50.6400 36.153
50.6600 35.535
50.6800 35.716
50.7000 36.802
50.7200 35.697
50.7400 36.307
50.7600 36.244
50.7800 35.808
50.8000 36.630
50.8200 36.447
50.8400 35.925
50.8600 36.060
50.8800 36.014
50.9000 36.179
50.9200 35.789
50.9400 36.102
50.9600 36.821
50.9800 36.529
51.0000 35.695
51.0200 36.550
51.0400 36.122
51.0600 36.902
51.0800 35.658
51.1000 36.703
51.1200 36.584
51.1400 36.104
51.1600 36.747
51.1800 36.746
51.2000 36.455
51.2200 37.587
51.2400 37.438
51.2600 36.085
51.2800 35.499
51.3000 35.801
51.3200 36.870
51.3400 35.696
51.3600 36.356
51.3800 36.250
51.4000 36.337
51.4200 35.981
51.4400 36.213
51.4600 36.428
51.4800 36.924
51.5000 37.573
51.5200 35.911
51.5400 36.655
51.5600 36.629
51.5800 36.674
51.6000 36.991
51.6200 37.047
51.6400 37.522
51.6600 38.247
51.6800 37.066
51.7000 37.486
51.7200 36.513
51.7400 36.336
51.7600 36.408
51.7800 36.633
51.8000 36.911
51.8200 37.522
51.8400 37.354
51.8600 37.914
51.8800 37.157
51.9000 36.992
51.9200 37.127
51.9400 36.856
51.9600 36.969
51.9800 37.029
52.0000 36.663
52.0200 37.210
52.0400 36.969
52.0600 37.219
52.0800 37.268
52.1000 36.916
52.1200 37.132
52.1400 37.283
52.1600 37.320
52.1800 36.687
52.2000 36.914
52.2200 37.420
52.2400 37.022
52.2600 36.592
52.2800 37.265
52.3000 38.290
52.3200 37.951
52.3400 37.988
52.3600 37.323
52.3800 37.419
52.4000 37.481
52.4200 37.634
52.4400 36.888
52.4600 36.440
52.4800 37.836
52.5000 37.765
52.5200 37.407
52.5400 37.930
52.5600 37.829
52.5800 37.365
52.6000 37.604
52.6200 37.431
52.6400 37.425
52.6600 38.421
52.6800 37.479
52.7000 38.157
52.7200 37.915
52.7400 38.119
52.7600 37.194
52.7800 38.263
52.8000 37.794
52.8200 37.770
52.8400 36.920
52.8600 37.672
52.8800 37.423
52.9000 38.210
52.9200 37.432
52.9400 38.257
52.9600 37.445
52.9800 37.351
53.0000 36.863
53.0200 38.838
53.0400 38.031
53.0600 37.652
53.0800 37.476
53.1000 37.678
53.1200 38.996
53.1400 37.876
53.1600 37.805
53.1800 37.576
53.2000 36.914
53.2200 38.535
53.2400 38.541
53.2600 38.499
53.2800 37.407
53.3000 38.435
53.3200 37.609
53.3400 37.700
53.3600 37.843
53.3800 38.299
53.4000 38.185
53.4200 38.232
53.4400 38.603
53.4600 36.986
53.4800 38.564
53.5000 38.211
53.5200 38.436
53.5400 38.373
53.5600 38.288
53.5800 37.225
53.6000 37.845
53.6200 37.982
53.6400 38.215
53.6600 38.168
53.6800 38.180
53.7000 37.761
53.7200 38.327
53.7400 38.545
53.7600 38.871
53.7800 37.595
53.8000 37.683
53.8200 37.769
53.8400 38.434
53.8600 38.938
53.8800 38.629
53.9000 38.429
53.9200 38.343
53.9400 37.841
53.9600 38.545
53.9800 38.122
54.0000 39.395
54.0200 38.044
54.0400 38.279
54.0600 39.171
54.0800 38.306
54.1000 37.470
54.1200 38.155
54.1400 38.475
54.1600 37.783
54.1800 37.675
54.2000 38.339
54.2200 38.211
54.2400 38.028
54.2600 38.333
54.2800 38.754
54.3000 38.275
54.3200 38.370
54.3400 38.785
54.3600 38.328
54.3800 38.387
54.4000 38.433
54.4200 38.120
54.4400 38.662
54.4600 37.647
54.4800 38.525
54.5000 38.499
54.5200 39.058
54.5400 38.671
54.5600 38.394
54.5800 38.786
54.6000 38.797
54.6200 39.737
54.6400 39.264
54.6600 38.225
54.6800 38.436
54.7000 38.813
54.7200 38.568
54.7400 38.998
54.7600 38.588
54.7800 39.586
54.8000 39.596
54.8200 39.031
54.8400 39.365
54.8600 38.698
54.8800 38.576
54.9000 39.426
54.9200 38.408
54.9400 38.748
54.9600 38.500
54.9800 38.979
55.0000 39.682
55.0200 39.852
55.0400 39.235
55.0600 39.255
55.0800 39.719
55.1000 39.442
55.1200 38.688
55.1400 38.536
55.1600 39.061
55.1800 39.679
55.2000 39.113
55.2200 38.958
55.2400 38.441
55.2600 39.150
55.2800 39.308
55.3000 39.663
55.3200 39.311
55.3400 39.356
55.3600 39.789
55.3800 38.686
55.4000 39.328
55.4200 39.566
55.4400 39.061
55.4600 39.322
55.4800 40.089
55.5000 39.976
55.5200 39.352
55.5400 39.448
55.5600 39.028
55.5800 38.897
55.6000 38.649
55.6200 39.866
55.6400 39.539
55.6600 38.741
55.6800 39.734
55.7000 39.823
55.7200 39.490
55.7400 39.439
55.7600 39.822
55.7800 39.185
55.8000 39.786
55.8200 39.057
55.8400 40.291
55.8600 40.811
55.8800 40.037
55.9000 40.006
55.9200 40.073
55.9400 39.545
55.9600 39.293
55.9800 39.426
56.0000 40.930
56.0200 39.231
56.0400 39.150
56.0600 39.321
56.0800 39.082
56.1000 40.526
56.1200 39.856
56.1400 39.920
56.1600 39.879
56.1800 40.123
56.2000 40.376
56.2200 39.723
56.2400 40.431
56.2600 40.195
56.2800 40.685
56.3000 40.929
56.3200 40.985
56.3400 41.362
56.3600 41.333
56.3800 40.062
56.4000 41.421
56.4200 42.226
56.4400 41.366
56.4600 41.589
56.4800 40.952
56.5000 41.913
56.5200 40.632
56.5400 41.569
56.5600 41.286
56.5800 40.400
56.6000 40.301
56.6200 40.247
56.6400 40.195
56.6600 39.760
56.6800 40.580
56.7000 39.613
56.7200 39.981
56.7400 41.096
56.7600 40.149
56.7800 40.209
56.8000 40.259
56.8200 40.577
56.8400 40.561
56.8600 41.167
56.8800 40.425
56.9000 41.380
56.9200 40.704
56.9400 41.033
56.9600 41.001
56.9800 40.186
57.0000 40.084
57.0200 40.115
57.0400 40.317
57.0600 40.603
57.0800 41.858
57.1000 41.391
57.1200 40.550
57.1400 41.269
57.1600 42.209
57.1800 42.958
57.2000 41.567
57.2200 40.473
57.2400 40.957
57.2600 40.442
57.2800 41.889
57.3000 40.834
57.3200 41.058
57.3400 42.421
57.3600 41.446
57.3800 41.609
57.4000 41.673
57.4200 41.013
57.4400 41.152
57.4600 41.799
57.4800 41.289
57.5000 41.597
57.5200 41.647
57.5400 41.639
57.5600 41.453
57.5800 41.834
57.6000 41.735
57.6200 42.646
57.6400 43.300
57.6600 42.146
57.6800 41.818
57.7000 42.229
57.7200 42.217
57.7400 42.028
57.7600 42.021
57.7800 41.930
57.8000 42.577
57.8200 42.540
57.8400 41.653
57.8600 42.243
57.8800 42.338
57.9000 42.918
57.9200 42.742
57.9400 42.113
57.9600 42.491
57.9800 42.570
58.0000 42.579
58.0200 42.610
58.0400 42.230
58.0600 43.971
58.0800 44.087
58.1000 44.127
58.1200 44.203
58.1400 44.777
58.1600 44.857
58.1800 44.983
58.2000 45.826
58.2200 45.951
58.2400 46.202
58.2600 45.705
58.2800 47.192
58.3000 47.389
58.3200 48.187
58.3400 47.537
58.3600 47.031
58.3800 48.659
58.4000 48.495
58.4200 49.493
58.4400 49.526
58.4600 49.699
58.4800 49.049
58.5000 50.525
58.5200 50.039
58.5400 49.994
58.5600 50.169
58.5800 51.074
58.6000 50.810
58.6200 50.036
58.6400 50.472
58.6600 50.331
58.6800 51.222
58.7000 50.745
58.7200 50.093
58.7400 51.226
58.7600 50.240
58.7800 50.867
58.8000 51.854
58.8200 50.475
58.8400 50.989
58.8600 49.405
58.8800 50.520
58.9000 49.667
58.9200 48.599
58.9400 48.964
58.9600 49.393
58.9800 47.793
59.0000 47.480
59.0200 46.494
59.0400 48.615
59.0600 47.179
59.0800 45.457
59.1000 45.179
59.1200 45.206
59.1400 45.784
59.1600 44.883
59.1800 43.834
59.2000 45.384
59.2200 43.900
59.2400 44.101
59.2600 43.712
59.2800 44.005
59.3000 43.517
59.3200 44.424
59.3400 43.713
59.3600 43.156
59.3800 43.882
59.4000 43.044
59.4200 42.424
59.4400 43.901
59.4600 43.043
59.4800 43.713
59.5000 43.298
59.5200 44.963
59.5400 43.765
59.5600 43.239
59.5800 42.873
59.6000 43.082
59.6200 41.808
59.6400 42.165
59.6600 43.364
59.6800 43.336
59.7000 43.257
59.7200 43.043
59.7400 42.958
59.7600 43.670
59.7800 43.019
59.8000 43.582
59.8200 42.804
59.8400 43.689
59.8600 44.551
59.8800 43.954
59.9000 42.265
59.9200 42.895
59.9400 43.497
59.9600 43.099
59.9800 42.613
60.0000 43.394
60.0200 42.478
60.0400 44.057
60.0600 42.932
60.0800 42.585
60.1000 42.847
60.1200 42.891
60.1400 43.175
60.1600 43.749
60.1800 42.783
60.2000 44.045
60.2200 42.990
60.2400 43.324
60.2600 43.186
60.2800 42.278
60.3000 43.126
60.3200 43.539
60.3400 42.967
60.3600 44.505
60.3800 44.155
60.4000 43.993
60.4200 42.867
60.4400 43.645
60.4600 43.984
60.4800 43.200
60.5000 43.295
60.5200 43.617
60.5400 43.335
60.5600 44.016
60.5800 44.672
60.6000 43.771
60.6200 42.987
60.6400 43.705
60.6600 43.326
60.6800 43.744
60.7000 42.719
60.7200 43.922
60.7400 44.013
60.7600 42.538
60.7800 43.255
60.8000 44.425
60.8200 44.032
60.8400 44.017
60.8600 44.353
60.8800 43.794
60.9000 43.672
60.9200 42.173
60.9400 43.818
60.9600 44.635
60.9800 44.455
61.0000 44.062
61.0200 43.215
61.0400 42.764
61.0600 43.532
61.0800 43.251
61.1000 44.381
61.1200 43.340
61.1400 43.336
61.1600 43.720
61.1800 44.193
61.2000 43.771
61.2200 44.160
61.2400 43.184
61.2600 43.103
61.2800 42.867
61.3000 43.475
61.3200 43.227
61.3400 43.711
61.3600 43.680
61.3800 44.310
61.4000 44.681
61.4200 43.759
61.4400 44.147
61.4600 43.866
61.4800 44.133
61.5000 44.253
61.5200 43.743
61.5400 43.725
61.5600 44.027
61.5800 44.122
61.6000 43.729
61.6200 44.385
61.6400 43.732
61.6600 43.119
61.6800 44.590
61.7000 44.218
61.7200 44.193
61.7400 45.033
61.7600 45.630
61.7800 45.358
61.8000 45.866
61.8200 45.875
61.8400 45.834
61.8600 45.637
61.8800 46.098
61.9000 45.209
61.9200 44.744
61.9400 45.984
61.9600 46.801
61.9800 46.766
62.0000 45.118
62.0200 45.168
62.0400 45.355
62.0600 44.464
62.0800 44.402
62.1000 44.569
62.1200 44.734
62.1400 45.074
62.1600 44.328
62.1800 44.091
62.2000 43.936
62.2200 44.974
62.2400 44.972
62.2600 44.932
62.2800 44.173
62.3000 45.214
62.3200 44.892
62.3400 44.034
62.3600 44.255
62.3800 44.183
62.4000 43.782
62.4200 44.782
62.4400 45.091
62.4600 44.932
62.4800 44.839
62.5000 44.798
62.5200 45.170
62.5400 45.303
62.5600 43.329
62.5800 44.101
62.6000 44.855
62.6200 44.287
62.6400 44.495
62.6600 44.192
62.6800 44.904
62.7000 44.423
62.7200 45.473
62.7400 44.864
62.7600 45.122
62.7800 44.818
62.8000 44.894
62.8200 45.051
62.8400 45.357
62.8600 44.787
62.8800 44.357
62.9000 43.870
62.9200 45.379
62.9400 44.497
62.9600 44.921
62.9800 43.807
63.0000 44.633
63.0200 45.544
63.0400 44.949
63.0600 45.210
63.0800 46.161
63.1000 44.289
63.1200 43.806
63.1400 44.719
63.1600 44.830
63.1800 45.739
63.2000 45.775
63.2200 45.597
63.2400 45.190
63.2600 45.382
63.2800 45.723
63.3000 45.176
63.3200 45.086
63.3400 45.360
63.3600 45.416
63.3800 45.243
63.4000 45.194
63.4200 44.595
63.4400 46.838
63.4600 45.754
63.4800 44.950
63.5000 45.088
63.5200 45.144
63.5400 45.075
63.5600 45.296
63.5800 45.059
63.6000 45.292
63.6200 44.865
63.6400 45.740
63.6600 45.605
63.6800 44.748
63.7000 45.348
63.7200 45.178
63.7400 45.356
63.7600 45.380
63.7800 45.488
63.8000 45.458
63.8200 45.942
63.8400 45.353
63.8600 45.752
63.8800 45.419
63.9000 46.098
63.9200 46.182
63.9400 46.424
63.9600 45.996
63.9800 46.737
64.0000 46.467
64.0200 47.217
64.0400 46.771
64.0600 46.828
64.0800 47.316
64.1000 47.633
64.1200 48.837
64.1400 48.508
64.1600 50.225
64.1800 49.385
64.2000 50.055
64.2200 50.207
64.2400 51.571
64.2600 52.033
64.2800 53.347
64.3000 53.309
64.3200 54.153
64.3400 53.839
64.3600 55.025
64.3800 54.566
64.4000 54.936
64.4200 54.015
64.4400 53.223
64.4600 52.909
64.4800 52.624
64.5000 52.815
64.5200 52.224
64.5400 51.064
64.5600 50.756
64.5800 51.579
64.6000 49.892
64.6200 49.019
64.6400 48.259
64.6600 48.117
64.6800 48.466
64.7000 48.436
64.7200 47.834
64.7400 47.646
64.7600 47.384
64.7800 46.730
64.8000 47.028
64.8200 46.780
64.8400 46.741
64.8600 46.186
64.8800 46.406
64.9000 46.935
64.9200 46.742
64.9400 46.585
64.9600 46.845
64.9800 48.451
65.0000 47.662
65.0200 46.732
65.0400 46.760
65.0600 46.107
65.0800 45.361
65.1000 46.322
65.1200 46.398
65.1400 45.587
65.1600 45.704
65.1800 45.848
65.2000 45.467
65.2200 45.999
65.2400 45.115
65.2600 47.434
65.2800 46.855
65.3000 47.358
65.3200 46.495
65.3400 46.485
65.3600 46.876
65.3800 45.702
65.4000 46.628
65.4200 46.886
65.4400 47.275
65.4600 46.920
65.4800 47.244
65.5000 45.861
65.5200 46.702
65.5400 46.560
65.5600 47.836
65.5800 47.720
65.6000 47.132
65.6200 47.169
65.6400 47.565
65.6600 46.278
65.6800 46.285
65.7000 46.569
65.7200 46.773
65.7400 45.820
65.7600 46.857
65.7800 47.828
65.8000 47.135
65.8200 47.214
65.8400 46.300
65.8600 46.916
65.8800 47.444
65.9000 46.896
65.9200 46.796
65.9400 46.524
65.9600 47.174
65.9800 47.195
66.0000 47.486
66.0200 46.362
66.0400 45.999
66.0600 47.370
66.0800 47.219
66.1000 47.906
66.1200 47.240
66.1400 47.527
66.1600 47.254
66.1800 47.145
66.2000 47.500
66.2200 46.790
66.2400 47.179
66.2600 46.725
66.2800 46.198
66.3000 45.996
66.3200 46.307
66.3400 46.650
66.3600 46.735
66.3800 47.041
66.4000 48.069
66.4200 47.290
66.4400 46.867
66.4600 47.093
66.4800 47.113
66.5000 47.270
66.5200 47.435
66.5400 46.934
66.5600 47.030
66.5800 47.023
66.6000 47.376
66.6200 47.147
66.6400 46.950
66.6600 46.988
66.6800 46.939
66.7000 47.085
66.7200 47.211
66.7400 47.240
66.7600 47.188
66.7800 46.959
66.8000 48.043
66.8200 47.928
66.8400 47.481
66.8600 47.854
66.8800 47.228
66.9000 48.381
66.9200 47.394
66.9400 47.672
66.9600 48.625
66.9800 47.274
67.0000 48.006
67.0200 48.640
67.0400 48.078
67.0600 48.031
67.0800 48.030
67.1000 48.313
67.1200 47.961
67.1400 47.954
67.1600 47.105
67.1800 47.765
67.2000 48.833
67.2200 48.218
67.2400 48.586
67.2600 48.796
67.2800 49.656
67.3000 48.693
67.3200 48.878
67.3400 49.981
67.3600 48.925
67.3800 49.081
67.4000 48.972
67.4200 49.062
67.4400 49.851
67.4600 49.191
67.4800 49.935
67.5000 49.087
67.5200 49.439
67.5400 49.219
67.5600 49.385
67.5800 49.798
67.6000 49.012
67.6200 49.723
67.6400 49.031
67.6600 49.114
67.6800 48.673
67.7000 49.367
67.7200 50.005
67.7400 50.319
67.7600 50.072
67.7800 49.529
67.8000 50.032
67.8200 49.117
67.8400 49.104
67.8600 49.159
67.8800 49.485
67.9000 49.345
67.9200 48.898
67.9400 48.616
67.9600 49.114
67.9800 48.590
68.0000 48.985
68.0200 48.829
68.0400 47.498
68.0600 47.955
68.0800 48.125
68.1000 47.783
68.1200 48.655
68.1400 49.662
68.1600 48.562
68.1800 49.505
68.2000 48.564
68.2200 47.679
68.2400 47.760
68.2600 47.901
68.2800 48.717
68.3000 47.878
68.3200 48.460
68.3400 48.409
68.3600 48.764
68.3800 49.747
68.4000 48.856
68.4200 48.101
68.4400 48.219
68.4600 48.114
68.4800 47.751
68.5000 48.717
68.5200 48.050
68.5400 48.581
68.5600 48.808
68.5800 48.716
68.6000 48.751
68.6200 49.178
68.6400 48.348
68.6600 49.013
68.6800 49.466
68.7000 48.380
68.7200 47.806
68.7400 48.366
68.7600 48.772
68.7800 48.529
68.8000 48.055
68.8200 48.664
68.8400 48.079
68.8600 48.756
68.8800 48.684
68.9000 48.235
68.9200 49.023
68.9400 48.538
68.9600 48.737
68.9800 49.007
69.0000 48.238
69.0200 48.019
69.0400 48.416
69.0600 47.179
69.0800 48.143
69.1000 48.862
69.1200 48.424
69.1400 48.556
69.1600 48.597
69.1800 48.927
69.2000 49.085
69.2200 48.684
69.2400 48.804
69.2600 49.059
69.2800 49.339
69.3000 49.077
69.3200 48.403
69.3400 48.566
69.3600 49.246
69.3800 49.355
69.4000 49.594
69.4200 49.006
69.4400 48.892
69.4600 48.401
69.4800 49.315
69.5000 49.553
69.5200 49.494
69.5400 49.232
69.5600 49.055
69.5800 48.908
69.6000 49.960
69.6200 48.797
69.6400 48.646
69.6600 49.355
69.6800 49.575
69.7000 49.166
69.7200 49.505
69.7400 49.119
69.7600 48.282
69.7800 49.621
69.8000 49.741
69.8200 49.859
69.8400 50.617
69.8600 49.340
69.8800 49.400
69.9000 50.355
69.9200 48.950
69.9400 49.233
69.9600 49.396
69.9800 50.585
70.0000 49.294
70.0200 49.856
70.0400 49.957
70.0600 49.867
70.0800 49.606
70.1000 48.673
70.1200 49.659
70.1400 50.313
70.1600 49.695
70.1800 49.319
70.2000 49.400
70.2200 49.368
70.2400 49.991
70.2600 49.206
70.2800 50.518
70.3000 50.522
70.3200 50.205
70.3400 50.311
70.3600 49.119
70.3800 49.282
70.4000 49.750
70.4200 49.169
70.4400 49.877
70.4600 50.185
70.4800 49.931
70.5000 49.844
70.5200 49.488
70.5400 50.047
70.5600 50.797
70.5800 50.172
70.6000 49.340
70.6200 50.178
70.6400 49.667
70.6600 49.925
70.6800 49.625
70.7000 48.739
70.7200 49.336
70.7400 49.728
70.7600 49.947
70.7800 50.524
70.8000 49.700
70.8200 50.690
70.8400 49.670
70.8600 49.775
70.8800 50.666
70.9000 50.494
70.9200 50.591
70.9400 50.033
70.9600 49.862
70.9800 50.389
71.0000 49.804
71.0200 50.224
71.0400 50.236
71.0600 50.051
71.0800 49.785
71.1000 49.775
71.1200 50.652
71.1400 50.767
71.1600 49.934
71.1800 49.384
71.2000 49.618
71.2200 49.979
71.2400 50.392
71.2600 51.260
71.2800 49.754
71.3000 50.723
71.3200 50.327
71.3400 50.902
71.3600 49.855
71.3800 51.082
71.4000 50.827
71.4200 50.207
71.4400 51.322
71.4600 51.522
71.4800 51.717
71.5000 51.164
71.5200 50.214
71.5400 50.938
71.5600 51.527
71.5800 51.764
71.6000 50.022
71.6200 51.029
71.6400 50.520
71.6600 50.211
71.6800 50.711
71.7000 50.010
71.7200 50.769
71.7400 51.210
71.7600 51.704
71.7800 51.021
71.8000 50.828
71.8200 50.885
71.8400 50.931
71.8600 49.985
71.8800 51.234
71.9000 51.274
71.9200 51.634
71.9400 51.532
71.9600 50.990
71.9800 51.064
72.0000 50.861
72.0200 50.935
72.0400 51.738
72.0600 50.956
72.0800 51.561
72.1000 51.613
72.1200 51.152
72.1400 51.667
72.1600 50.929
72.1800 50.583
72.2000 51.408
72.2200 51.380
72.2400 52.281
72.2600 52.313
72.2800 51.301
72.3000 50.967
72.3200 51.293
72.3400 50.896
72.3600 51.721
72.3800 51.663
72.4000 51.182
72.4200 52.313
72.4400 51.645
72.4600 52.115
72.4800 52.144
72.5000 51.720
72.5200 51.124
72.5400 51.747
72.5600 52.680
72.5800 52.037
72.6000 51.352
72.6200 50.404
72.6400 51.102
72.6600 50.889
72.6800 51.862
72.7000 51.437
72.7200 52.456
72.7400 52.081
72.7600 51.495
72.7800 51.194
72.8000 51.182
72.8200 52.063
72.8400 51.965
72.8600 51.620
72.8800 53.151
72.9000 51.939
72.9200 51.861
72.9400 52.368
72.9600 51.956
72.9800 50.888
73.0000 50.927
73.0200 51.268
73.0400 51.426
73.0600 52.987
73.0800 52.444
73.1000 52.715
73.1200 51.585
73.1400 51.811
73.1600 53.462
73.1800 53.370
73.2000 52.572
73.2200 52.116
73.2400 52.298
73.2600 51.441
73.2800 51.748
73.3000 50.887
73.3200 52.001
73.3400 52.489
73.3600 52.634
73.3800 52.878
73.4000 52.325
73.4200 52.205
73.4400 51.884
73.4600 52.509
73.4800 51.728
73.5000 52.632
73.5200 52.393
73.5400 52.874
73.5600 51.644
73.5800 51.938
73.6000 52.594
73.6200 53.340
73.6400 51.843
73.6600 53.068
73.6800 52.527
73.7000 52.510
73.7200 51.467
73.7400 52.786
73.7600 53.304
73.7800 52.621
73.8000 52.085
73.8200 52.667
73.8400 51.918
73.8600 53.395
73.8800 52.071
73.9000 52.383
73.9200 53.021
73.9400 51.951
73.9600 52.588
73.9800 54.004
74.0000 52.826
74.0200 52.622
74.0400 53.662
74.0600 53.004
74.0800 52.452
74.1000 53.191
74.1200 53.073
74.1400 52.877
74.1600 53.407
74.1800 51.779
74.2000 51.885
74.2200 53.298
74.2400 52.409
74.2600 53.505
74.2800 53.545
74.3000 53.475
74.3200 53.833
74.3400 54.050
74.3600 52.731
74.3800 54.018
74.4000 52.959
74.4200 53.540
74.4400 52.881
74.4600 52.732
74.4800 52.352
74.5000 52.385
74.5200 53.675
74.5400 53.177
74.5600 54.297
74.5800 53.278
74.6000 54.013
74.6200 53.427
74.6400 53.612
74.6600 53.930
74.6800 54.269
74.7000 53.185
74.7200 53.259
74.7400 53.902
74.7600 53.048
74.7800 52.703
74.8000 53.790
74.8200 52.940
74.8400 53.999
74.8600 53.839
74.8800 54.326
74.9000 53.664
74.9200 52.484
74.9400 52.269
74.9600 53.977
74.9800 54.127
75.0000 53.523
75.0200 54.783
75.0400 53.698
75.0600 53.273
75.0800 53.318
75.1000 53.910
75.1200 53.689
75.1400 53.689
75.1600 53.812
75.1800 54.332
75.2000 53.305
75.2200 54.288
75.2400 53.824
75.2600 54.289
75.2800 53.218
75.3000 53.781
75.3200 53.755
75.3400 54.025
75.3600 55.020
75.3800 53.799
75.4000 54.628
75.4200 54.812
75.4400 54.230
75.4600 54.518
75.4800 55.333
75.5000 54.799
75.5200 53.286
75.5400 54.543
75.5600 54.377
75.5800 55.408
75.6000 54.195
75.6200 53.806
75.6400 53.860
75.6600 54.213
75.6800 54.694
75.7000 53.977
75.7200 53.515
75.7400 55.246
75.7600 55.233
75.7800 54.050
75.8000 54.172
75.8200 54.727
75.8400 55.455
75.8600 54.065
75.8800 55.080
75.9000 54.464
75.9200 54.425
75.9400 54.140
75.9600 54.586
75.9800 54.934
76.0000 54.026
76.0200 54.394
76.0400 54.092
76.0600 54.484
76.0800 54.672
76.1000 55.915
76.1200 54.875
76.1400 54.966
76.1600 55.663
76.1800 55.069
76.2000 55.621
76.2200 53.921
76.2400 54.702
76.2600 54.951
76.2800 54.352
76.3000 55.202
76.3200 55.259
76.3400 54.081
76.3600 53.601
76.3800 54.637
76.4000 54.193
76.4200 54.166
76.4400 55.069
76.4600 54.970
76.4800 55.879
76.5000 54.631
76.5200 54.337
76.5400 55.067
76.5600 54.741
76.5800 54.686
76.6000 54.325
76.6200 55.596
76.6400 54.848
76.6600 55.168
76.6800 55.287
76.7000 56.195
76.7200 55.627
76.7400 54.597
76.7600 55.959
76.7800 56.413
76.8000 55.408
76.8200 55.113
76.8400 55.000
76.8600 54.011
76.8800 55.874
76.9000 55.225
76.9200 55.416
76.9400 55.865
76.9600 55.947
76.9800 55.681
77.0000 55.726
77.0200 54.867
77.0400 55.676
77.0600 55.067
77.0800 55.133
77.1000 56.321
77.1200 55.821
77.1400 55.438
77.1600 56.710
77.1800 55.458
77.2000 55.476
77.2200 56.835
77.2400 55.949
77.2600 56.329
77.2800 56.291
77.3000 55.418
77.3200 55.018
77.3400 56.464
77.3600 55.234
77.3800 55.700
77.4000 56.053
77.4200 55.668
77.4400 55.692
77.4600 57.354
77.4800 56.240
77.5000 56.066
77.5200 57.008
77.5400 56.776
77.5600 56.349
77.5800 56.009
77.6000 56.608
77.6200 57.170
77.6400 56.780
77.6600 55.921
77.6800 56.410
77.7000 56.828
77.7200 55.941
77.7400 56.798
77.7600 56.759
77.7800 56.455
77.8000 56.441
77.8200 55.532
77.8400 56.206
77.8600 56.948
77.8800 56.487
77.9000 56.485
77.9200 56.413
77.9400 56.212
77.9600 55.850
77.9800 56.271
78.0000 55.703
78.0200 56.809
78.0400 56.201
78.0600 57.838
78.0800 56.880
78.1000 56.516
78.1200 56.906
78.1400 56.741
78.1600 56.299
78.1800 57.071
78.2000 56.895
78.2200 56.600
78.2400 56.391
78.2600 55.834
78.2800 56.458
78.3000 56.434
78.3200 56.836
78.3400 57.047
78.3600 55.734
78.3800 56.546
78.4000 56.579
78.4200 57.806
78.4400 57.013
78.4600 58.409
78.4800 57.059
78.5000 56.983
78.5200 56.809
78.5400 56.787
78.5600 56.343
78.5800 57.078
78.6000 56.848
78.6200 57.787
78.6400 56.343
78.6600 56.421
78.6800 56.720
78.7000 58.212
78.7200 58.853
78.7400 57.150
78.7600 57.100
78.7800 56.640
78.8000 56.506
78.8200 56.854
78.8400 56.509
78.8600 58.064
78.8800 58.781
78.9000 57.369
78.9200 56.535
78.9400 56.814
78.9600 58.131
78.9800 56.921
79.0000 57.026
79.0200 56.915
79.0400 58.079
79.0600 58.401
79.0800 57.029
79.1000 57.427
79.1200 58.196
79.1400 57.403
79.1600 56.695
79.1800 57.870
79.2000 57.171
79.2200 57.108
79.2400 57.902
79.2600 57.963
79.2800 59.177
79.3000 58.201
79.3200 57.906
79.3400 57.579
79.3600 57.393
79.3800 57.817
79.4000 57.626
79.4200 58.450
79.4400 59.437
79.4600 59.018
79.4800 58.763
79.5000 58.169
79.5200 57.436
79.5400 58.181
79.5600 57.706
79.5800 58.809
79.6000 58.936
79.6200 58.024
79.6400 58.061
79.6600 57.526
79.6800 58.573
79.7000 58.324
79.7200 59.333
79.7400 58.454
79.7600 58.679
79.7800 58.227
79.8000 58.286
79.8200 57.864
79.8400 59.681
79.8600 57.746
79.8800 58.064
79.9000 58.284
79.9200 57.917
79.9400 58.358
79.9600 57.535
79.9800 58.610
80.0000 59.146
