'Id: "" Comment: "" Operator: "Lab Manager" Anode: "Cu" Scantype: "Coupled TwoTheta/Theta" TimePerStep: "113.4654" X: "9999" Y: "9999" Z: "-2.700037" 
20.0000 7.840
20.0200 7.844
20.0400 7.819
20.0600 7.895
20.0800 7.497
20.1000 7.927
20.1200 7.874
20.1400 7.789
20.1600 7.619
20.1800 7.600
20.2000 8.076
20.2200 7.864
20.2400 7.905
20.2600 7.964
20.2800 8.081
20.3000 8.213
20.3200 7.949
20.3400 8.159
20.3600 8.341
20.3800 8.034
20.4000 8.338
20.4200 8.218
20.4400 8.543
20.4600 8.185
20.4800 8.001
20.5000 7.989
20.5200 8.016
20.5400 8.199
20.5600 8.387
20.5800 8.358
20.6000 8.215
20.6200 8.064
20.6400 8.104
20.6600 8.591
20.6800 8.686
20.7000 8.497
20.7200 8.454
20.7400 8.590
20.7600 8.366
20.7800 8.463
20.8000 8.895
20.8200 8.248
20.8400 8.752
20.8600 8.829
20.8800 8.512
20.9000 8.913
20.9200 8.316
20.9400 8.542
20.9600 8.697
20.9800 8.445
21.0000 7.999
21.0200 8.697
21.0400 8.308
21.0600 8.740
21.0800 9.098
21.1000 9.043
21.1200 8.892
21.1400 8.430
21.1600 8.847
21.1800 9.136
21.2000 8.643
21.2200 8.839
21.2400 8.669
21.2600 9.167
21.2800 9.124
21.3000 8.836
21.3200 9.098
21.3400 9.043
21.3600 9.159
21.3800 9.088
21.4000 8.724
21.4200 8.446
21.4400 8.742
21.4600 8.526
21.4800 8.818
21.5000 9.150
21.5200 8.925
21.5400 8.892
21.5600 8.571
21.5800 8.637
21.6000 8.779
21.6200 9.342
21.6400 9.144
21.6600 9.049
21.6800 9.281
21.7000 9.073
21.7200 8.869
21.7400 9.172
21.7600 9.257
21.7800 9.356
21.8000 9.503
21.8200 9.106
21.8400 9.214
21.8600 9.532
21.8800 8.816
21.9000 9.330
21.9200 9.090
21.9400 9.236
21.9600 9.452
21.9800 9.188
22.0000 9.414
22.0200 8.710
22.0400 9.513
22.0600 9.357
22.0800 9.013
22.1000 8.909
22.1200 9.722
22.1400 9.385
22.1600 9.409
22.1800 9.261
22.2000 9.359
22.2200 9.860
22.2400 9.590
22.2600 9.108
22.2800 9.714
22.3000 9.574
22.3200 9.202
22.3400 9.454
22.3600 9.322
22.3800 9.339
22.4000 9.427
22.4200 9.811
22.4400 9.813
22.4600 9.454
22.4800 9.790
22.5000 9.670
22.5200 9.459
22.5400 9.710
22.5600 9.950
22.5800 10.013
22.6000 9.541
22.6200 9.720
22.6400 10.005
22.6600 10.210
22.6800 9.459
22.7000 9.720
22.7200 9.874
22.7400 9.872
22.7600 9.600
22.7800 9.588
22.8000 10.118
22.8200 10.312
22.8400 9.406
22.8600 10.434
22.8800 9.983
22.9000 9.907
22.9200 9.717
22.9400 9.765
22.9600 10.218
22.9800 10.133
23.0000 9.995
23.0200 9.910
23.0400 10.071
23.0600 10.280
23.0800 10.589
23.1000 10.066
23.1200 10.161
23.1400 10.477
23.1600 10.693
23.1800 9.895
23.2000 10.131
23.2200 10.237
23.2400 10.017
23.2600 10.471
23.2800 9.551
23.3000 9.822
23.3200 10.274
23.3400 10.388
23.3600 10.116
23.3800 9.917
23.4000 9.977
23.4200 10.319
23.4400 9.948
23.4600 10.291
23.4800 10.243
23.5000 10.564
23.5200 10.771
23.5400 10.544
23.5600 10.505
23.5800 10.792
23.6000 10.465
23.6200 10.158
23.6400 10.677
23.6600 10.959
23.6800 10.514
23.7000 10.868
23.7200 10.336
23.7400 10.705
23.7600 10.598
23.7800 10.999
23.8000 10.989
23.8200 10.609
23.8400 10.508
23.8600 10.499
23.8800 10.394
23.9000 10.991
23.9200 10.616
23.9400 10.596
23.9600 10.613
23.9800 11.072
24.0000 10.780
24.0200 10.409
24.0400 10.782
24.0600 11.409
24.0800 11.544
24.1000 11.414
24.1200 10.532
24.1400 10.745
24.1600 10.874
24.1800 11.168
24.2000 10.897
24.2200 10.390
24.2400 11.489
24.2600 11.113
24.2800 10.942
24.3000 11.054
24.3200 11.030
24.3400 10.772
24.3600 10.222
24.3800 10.636
24.4000 11.463
24.4200 10.963
24.4400 11.027
24.4600 10.892
24.4800 11.344
24.5000 11.189
24.5200 11.079
24.5400 11.578
24.5600 10.896
24.5800 11.124
24.6000 11.341
24.6200 11.284
24.6400 11.732
24.6600 11.420
24.6800 11.529
24.7000 11.307
24.7200 11.189
24.7400 11.322
24.7600 11.765
24.7800 11.386
24.8000 11.390
24.8200 11.267
24.8400 11.274
24.8600 11.161
24.8800 11.237
24.9000 11.170
24.9200 11.104
24.9400 11.559
24.9600 11.197
24.9800 11.578
25.0000 11.331
25.0200 12.121
25.0400 11.168
25.0600 11.748
25.0800 11.045
25.1000 11.289
25.1200 11.290
25.1400 11.079
25.1600 11.215
25.1800 11.588
25.2000 11.449
25.2200 11.950
25.2400 11.530
25.2600 11.534
25.2800 11.725
25.3000 11.970
25.3200 12.084
25.3400 11.630
25.3600 11.496
25.3800 11.905
25.4000 11.296
25.4200 11.906
25.4400 12.030
25.4600 12.266
25.4800 11.845
25.5000 11.966
25.5200 11.609
25.5400 12.121
25.5600 12.572
25.5800 12.137
25.6000 11.669
25.6200 12.021
25.6400 12.026
25.6600 11.649
25.6800 12.298
25.7000 12.423
25.7200 12.125
25.7400 12.135
25.7600 11.839
25.7800 11.704
25.8000 12.130
25.8200 12.283
25.8400 12.341
25.8600 12.205
25.8800 12.555
25.9000 12.066
25.9200 12.240
25.9400 12.093
25.9600 12.276
25.9800 12.624
26.0000 12.767
26.0200 12.580
26.0400 12.409
26.0600 12.541
26.0800 12.551
26.1000 12.851
26.1200 11.808
26.1400 12.561
26.1600 12.734
26.1800 12.471
26.2000 12.757
26.2200 12.414
26.2400 12.553
26.2600 12.070
26.2800 12.407
26.3000 12.338
26.3200 12.817
26.3400 13.023
26.3600 12.297
26.3800 12.891
26.4000 12.551
26.4200 12.080
26.4400 12.607
26.4600 12.535
26.4800 12.471
26.5000 12.339
26.5200 12.301
26.5400 12.438
26.5600 12.790
26.5800 13.314
26.6000 12.655
26.6200 12.447
26.6400 12.588
26.6600 12.598
26.6800 12.996
26.7000 12.558
26.7200 12.942
26.7400 12.874
26.7600 12.785
26.7800 12.683
26.8000 13.031
26.8200 13.138
26.8400 13.400
26.8600 13.189
26.8800 13.336
26.9000 12.888
26.9200 12.753
26.9400 12.984
26.9600 12.721
26.9800 12.954
27.0000 12.808
27.0200 12.392
27.0400 12.579
27.0600 13.636
27.0800 13.433
27.1000 12.885
27.1200 13.303
27.1400 13.567
27.1600 13.579
27.1800 13.178
27.2000 13.028
27.2200 12.627
27.2400 12.718
27.2600 13.412
27.2800 13.264
27.3000 13.121
27.3200 13.411
27.3400 13.552
27.3600 13.118
27.3800 12.952
27.4000 13.678
27.4200 13.484
27.4400 13.520
27.4600 13.237
27.4800 13.364
27.5000 13.512
27.5200 13.806
27.5400 13.354
27.5600 13.736
27.5800 13.850
27.6000 13.105
27.6200 13.639
27.6400 13.623
27.6600 13.586
27.6800 13.331
27.7000 13.785
27.7200 14.151
27.7400 13.663
27.7600 13.920
27.7800 13.859
27.8000 13.594
27.8200 14.230
27.8400 13.286
27.8600 13.027
27.8800 13.636
27.9000 13.945
27.9200 13.765
27.9400 13.743
27.9600 13.656
27.9800 13.845
28.0000 13.920
28.0200 14.098
28.0400 13.832
28.0600 13.958
28.0800 14.076
28.1000 14.376
28.1200 13.910
28.1400 13.800
28.1600 14.587
28.1800 14.342
28.2000 14.009
28.2200 13.901
28.2400 13.802
28.2600 14.189
28.2800 14.290
28.3000 14.312
28.3200 14.074
28.3400 14.089
28.3600 13.951
28.3800 13.899
28.4000 13.860
28.4200 14.439
28.4400 14.267
28.4600 14.073
28.4800 14.009
28.5000 14.612
28.5200 13.971
28.5400 14.132
28.5600 14.408
28.5800 14.689
28.6000 14.431
28.6200 14.559
28.6400 14.765
28.6600 14.165
28.6800 14.763
28.7000 14.460
28.7200 14.534
28.7400 14.965
28.7600 14.946
28.7800 14.706
28.8000 14.532
28.8200 14.811
28.8400 15.081
28.8600 14.732
28.8800 14.360
28.9000 14.987
28.9200 14.865
28.9400 14.514
28.9600 14.550
28.9800 14.550
29.0000 14.544
29.0200 14.865
29.0400 14.113
29.0600 14.587
29.0800 14.574
29.1000 14.876
29.1200 14.608
29.1400 15.242
29.1600 15.336
29.1800 15.331
29.2000 15.012
29.2200 15.070
29.2400 15.332
29.2600 15.613
29.2800 15.175
29.3000 15.126
29.3200 15.067
29.3400 15.307
29.3600 15.708
29.3800 15.860
29.4000 15.513
29.4200 15.247
29.4400 15.123
29.4600 15.565
29.4800 15.736
29.5000 15.649
29.5200 15.309
29.5400 15.471
29.5600 15.607
29.5800 16.130
29.6000 15.708
29.6200 16.059
29.6400 15.665
29.6600 16.146
29.6800 15.698
29.7000 15.457
29.7200 16.741
29.7400 15.942
29.7600 15.820
29.7800 15.958
29.8000 15.536
29.8200 15.484
29.8400 15.906
29.8600 15.304
29.8800 15.900
29.9000 16.265
29.9200 15.898
29.9400 15.291
29.9600 15.672
29.9800 16.015
30.0000 15.112
30.0200 15.349
30.0400 15.514
30.0600 15.560
30.0800 15.428
30.1000 15.585
30.1200 15.676
30.1400 15.725
30.1600 16.282
30.1800 15.937
30.2000 15.968
30.2200 16.291
30.2400 16.322
30.2600 15.579
30.2800 15.599
30.3000 15.475
30.3200 16.341
30.3400 16.472
30.3600 16.356
30.3800 16.088
30.4000 15.602
30.4200 16.371
30.4400 15.900
30.4600 15.478
30.4800 16.323
30.5000 16.373
30.5200 16.939
30.5400 16.504
30.5600 16.193
30.5800 16.197
30.6000 16.646
30.6200 16.207
30.6400 16.765
30.6600 16.924
30.6800 15.973
30.7000 16.731
30.7200 15.930
30.7400 16.503
30.7600 16.842
30.7800 16.500
30.8000 16.270
30.8200 16.351
30.8400 16.998
30.8600 16.724
30.8800 16.445
30.9000 16.270
30.9200 16.654
30.9400 17.028
30.9600 17.138
30.9800 17.137
31.0000 16.981
31.0200 16.439
31.0400 16.637
31.0600 16.639
31.0800 16.572
31.1000 16.800
31.1200 16.695
31.1400 16.821
31.1600 17.207
31.1800 17.183
31.2000 16.676
31.2200 17.032
31.2400 17.281
31.2600 16.760
31.2800 16.568
31.3000 17.234
31.3200 16.764
31.3400 16.593
31.3600 16.950
31.3800 17.541
31.4000 17.094
31.4200 17.335
31.4400 17.444
31.4600 17.245
31.4800 16.558
31.5000 16.769
31.5200 17.556
31.5400 17.502
31.5600 17.017
31.5800 17.269
31.6000 16.443
31.6200 17.286
31.6400 17.590
31.6600 17.393
31.6800 17.955
31.7000 16.920
31.7200 17.100
31.7400 16.683
31.7600 18.306
31.7800 17.430
31.8000 17.808
31.8200 17.596
31.8400 18.125
31.8600 17.660
31.8800 17.384
31.9000 17.448
31.9200 16.691
31.9400 17.446
31.9600 17.949
31.9800 18.449
32.0000 17.499
32.0200 17.547
32.0400 17.018
32.0600 17.541
32.0800 17.395
32.1000 17.817
32.1200 18.020
32.1400 17.304
32.1600 18.559
32.1800 18.346
32.2000 17.720
32.2200 18.068
32.2400 18.494
32.2600 17.679
32.2800 17.714
32.3000 17.144
32.3200 17.099
32.3400 17.569
32.3600 18.328
32.3800 18.368
32.4000 18.198
32.4200 18.158
32.4400 18.267
32.4600 18.072
32.4800 17.798
32.5000 18.218
32.5200 18.642
32.5400 19.045
32.5600 18.109
32.5800 17.945
32.6000 18.236
32.6200 18.160
32.6400 18.673
32.6600 18.467
32.6800 18.433
32.7000 18.484
32.7200 18.750
32.7400 18.853
32.7600 18.659
32.7800 18.791
32.8000 18.272
32.8200 17.849
32.8400 18.116
32.8600 18.226
32.8800 19.180
32.9000 19.522
32.9200 18.600
32.9400 18.350
32.9600 18.095
32.9800 17.999
33.0000 17.642
33.0200 19.089
33.0400 18.853
33.0600 18.960
33.0800 19.058
33.1000 18.572
33.1200 18.878
33.1400 19.130
33.1600 18.630
33.1800 19.348
33.2000 18.859
33.2200 18.744
33.2400 19.348
33.2600 18.774
33.2800 19.240
33.3000 19.391
33.3200 18.786
33.3400 18.715
33.3600 18.847
33.3800 19.947
33.4000 19.540
33.4200 18.809
33.4400 19.178
33.4600 18.612
33.4800 19.979
33.5000 19.275
33.5200 19.519
33.5400 19.927
33.5600 19.384
33.5800 19.280
33.6000 19.518
33.6200 19.875
33.6400 19.619
33.6600 20.028
33.6800 19.399
33.7000 19.401
33.7200 18.975
33.7400 19.365
33.7600 19.817
33.7800 19.486
33.8000 18.777
33.8200 18.741
33.8400 18.836
33.8600 20.111
33.8800 20.393
33.9000 19.651
33.9200 19.426
33.9400 19.837
33.9600 19.881
33.9800 19.756
34.0000 19.707
34.0200 19.310
34.0400 19.973
34.0600 20.033
34.0800 20.135
34.1000 20.069
34.1200 20.027
34.1400 20.120
34.1600 20.364
34.1800 19.999
34.2000 20.759
34.2200 20.065
34.2400 19.930
34.2600 19.666
34.2800 20.081
34.3000 20.468
34.3200 20.595
34.3400 20.023
34.3600 19.862
34.3800 19.674
34.4000 20.475
34.4200 20.300
34.4400 20.840
34.4600 21.025
34.4800 20.480
34.5000 20.311
34.5200 20.553
34.5400 19.970
34.5600 20.602
34.5800 20.847
34.6000 20.476
34.6200 20.320
34.6400 20.935
34.6600 20.822
34.6800 20.627
34.7000 21.021
34.7200 20.011
34.7400 20.970
34.7600 20.744
34.7800 20.892
34.8000 20.761
34.8200 20.996
34.8400 21.618
34.8600 21.259
34.8800 22.056
34.9000 21.786
34.9200 21.823
34.9400 21.542
34.9600 22.076
34.9800 22.830
35.0000 22.606
35.0200 23.606
35.0400 22.974
35.0600 22.569
35.0800 22.924
35.1000 22.239
35.1200 22.030
35.1400 21.916
35.1600 21.385
35.1800 21.675
35.2000 21.721
35.2200 21.418
35.2400 21.241
35.2600 20.980
35.2800 21.331
35.3000 21.405
35.3200 21.909
35.3400 21.793
35.3600 21.345
35.3800 21.698
35.4000 21.229
35.4200 21.054
35.4400 21.827
35.4600 22.200
35.4800 20.499
35.5000 21.633
35.5200 21.843
35.5400 21.767
35.5600 22.300
35.5800 21.515
35.6000 21.118
35.6200 21.607
35.6400 21.335
35.6600 21.594
35.6800 22.020
35.7000 21.420
35.7200 22.023
35.7400 22.095
35.7600 21.963
35.7800 21.666
35.8000 21.459
35.8200 22.501
35.8400 21.323
35.8600 21.197
35.8800 22.386
35.9000 22.276
35.9200 20.882
35.9400 22.073
35.9600 21.938
35.9800 22.078
36.0000 22.234
36.0200 22.337
36.0400 22.121
36.0600 22.234
36.0800 22.361
36.1000 22.836
36.1200 21.423
36.1400 21.683
36.1600 21.990
36.1800 22.521
36.2000 22.164
36.2200 21.886
36.2400 22.180
36.2600 21.860
36.2800 22.198
36.3000 22.023
36.3200 22.194
36.3400 21.708
36.3600 22.255
36.3800 22.382
36.4000 22.198
36.4200 22.350
36.4400 22.476
36.4600 22.405
36.4800 22.197
36.5000 22.098
36.5200 23.450
36.5400 23.142
36.5600 22.578
36.5800 23.293
36.6000 23.077
36.6200 23.044
36.6400 22.024
36.6600 22.912
36.6800 23.297
36.7000 23.308
36.7200 23.182
36.7400 23.494
36.7600 23.536
36.7800 22.418
36.8000 22.646
36.8200 22.912
36.8400 23.182
36.8600 23.558
36.8800 23.680
36.9000 23.057
36.9200 23.174
36.9400 23.313
36.9600 23.527
36.9800 23.110
37.0000 24.114
37.0200 24.290
37.0400 23.755
37.0600 23.399
37.0800 23.885
37.1000 23.945
37.1200 24.560
37.1400 23.426
37.1600 23.097
37.1800 23.819
37.2000 24.214
37.2200 24.758
37.2400 24.517
37.2600 23.775
37.2800 23.933
37.3000 24.476
37.3200 24.272
37.3400 24.294
37.3600 24.438
37.3800 24.714
37.4000 24.524
37.4200 24.876
37.4400 24.582
37.4600 24.241
37.4800 24.659
37.5000 24.992
37.5200 24.167
37.5400 24.398
37.5600 24.334
37.5800 23.716
37.6000 25.017
37.6200 24.924
37.6400 24.288
37.6600 24.821
37.6800 26.151
37.7000 24.612
37.7200 24.018
37.7400 24.896
37.7600 24.881
37.7800 25.411
37.8000 24.657
37.8200 25.399
37.8400 25.751
37.8600 24.428
37.8800 25.010
37.9000 24.786
37.9200 24.758
37.9400 24.755
37.9600 25.058
37.9800 25.130
38.0000 25.165
38.0200 24.945
38.0400 25.359
38.0600 25.246
38.0800 25.175
38.1000 24.817
38.1200 25.882
38.1400 25.498
38.1600 25.735
38.1800 27.029
38.2000 25.474
38.2200 24.808
38.2400 25.414
38.2600 26.323
38.2800 25.873
38.3000 25.878
38.3200 25.961
38.3400 25.523
38.3600 26.334
38.3800 26.199
38.4000 26.422
38.4200 26.028
38.4400 25.788
38.4600 25.785
38.4800 25.570
38.5000 25.820
38.5200 25.576
38.5400 26.454
38.5600 26.098
38.5800 26.145
38.6000 26.270
38.6200 26.424
38.6400 26.813
38.6600 26.183
38.6800 25.599
38.7000 26.398
38.7200 25.812
38.7400 26.420
38.7600 26.754
38.7800 27.078
38.8000 26.088
38.8200 26.576
38.8400 27.528
38.8600 27.105
38.8800 26.152
38.9000 26.223
38.9200 26.802
38.9400 26.663
38.9600 26.485
38.9800 26.174
39.0000 26.556
39.0200 26.631
39.0400 26.784
39.0600 26.503
39.0800 26.675
39.1000 26.801
39.1200 26.749
39.1400 26.603
39.1600 27.612
39.1800 28.187
39.2000 27.280
39.2200 26.477
39.2400 27.184
39.2600 26.583
39.2800 27.173
39.3000 26.678
39.3200 27.523
39.3400 26.853
39.3600 26.999
39.3800 26.815
39.4000 27.111
39.4200 26.735
39.4400 26.950
39.4600 27.132
39.4800 27.274
39.5000 26.723
39.5200 27.153
39.5400 27.502
39.5600 27.100
39.5800 27.026
39.6000 26.099
39.6200 27.495
39.6400 27.374
39.6600 26.596
39.6800 28.062
39.7000 27.752
39.7200 27.021
39.7400 27.352
39.7600 27.443
39.7800 27.664
39.8000 26.888
39.8200 27.665
39.8400 27.846
39.8600 28.106
39.8800 27.899
39.9000 27.535
39.9200 27.306
39.9400 27.423
39.9600 27.018
39.9800 27.508
40.0000 27.707
40.0200 27.963
40.0400 28.116
40.0600 27.971
40.0800 28.222
40.1000 28.342
40.1200 28.182
40.1400 27.567
40.1600 27.550
40.1800 28.046
40.2000 28.207
40.2200 27.127
40.2400 28.050
40.2600 28.361
40.2800 27.756
40.3000 27.735
40.3200 28.056
40.3400 29.116
40.3600 28.155
40.3800 28.050
40.4000 28.623
40.4200 28.795
40.4400 28.620
40.4600 28.315
40.4800 28.316
40.5000 28.923
40.5200 28.693
40.5400 28.703
40.5600 28.706
40.5800 27.739
40.6000 28.681
40.6200 28.319
40.6400 28.754
40.6600 28.743
40.6800 28.719
40.7000 29.122
40.7200 28.402
40.7400 28.823
40.7600 29.420
40.7800 28.913
40.8000 28.179
40.8200 29.499
40.8400 28.612
40.8600 28.850
40.8800 28.885
40.9000 27.987
40.9200 28.883
40.9400 28.686
40.9600 27.924
40.9800 28.729
41.0000 27.977
41.0200 28.882
41.0400 29.462
41.0600 28.180
41.0800 29.242
41.1000 29.047
41.1200 28.901
41.1400 29.615
41.1600 28.847
41.1800 29.957
41.2000 29.941
41.2200 29.190
41.2400 28.265
41.2600 29.086
41.2800 29.517
41.3000 28.505
41.3200 28.999
41.3400 28.716
41.3600 29.325
41.3800 28.929
41.4000 29.638
41.4200 28.594
41.4400 29.057
41.4600 28.733
41.4800 28.704
41.5000 29.675
41.5200 28.749
41.5400 29.485
41.5600 28.667
41.5800 28.970
41.6000 29.407
41.6200 29.396
41.6400 29.817
41.6600 29.729
41.6800 29.890
41.7000 29.454
41.7200 29.567
41.7400 29.620
41.7600 29.170
41.7800 29.509
41.8000 29.882
41.8200 30.189
41.8400 29.329
41.8600 29.192
41.8800 29.008
41.9000 29.257
41.9200 29.906
41.9400 29.819
41.9600 29.297
41.9800 30.202
42.0000 29.703
42.0200 29.702
42.0400 29.819
42.0600 30.413
42.0800 30.364
42.1000 30.502
42.1200 29.603
42.1400 29.917
42.1600 29.629
42.1800 30.072
42.2000 29.318
42.2200 29.444
42.2400 30.291
42.2600 29.989
42.2800 29.901
42.3000 30.638
42.3200 30.316
42.3400 30.619
42.3600 30.177
42.3800 30.316
42.4000 29.685
42.4200 30.619
42.4400 30.798
42.4600 31.578
42.4800 31.401
42.5000 32.128
42.5200 32.021
42.5400 32.180
42.5600 32.260
42.5800 31.430
42.6000 31.247
42.6200 31.420
42.6400 32.039
42.6600 31.238
42.6800 30.912
42.7000 30.897
42.7200 31.612
42.7400 30.736
42.7600 31.251
42.7800 29.918
42.8000 30.068
42.8200 29.998
42.8400 31.148
42.8600 30.664
42.8800 31.143
42.9000 30.381
42.9200 30.221
42.9400 31.266
42.9600 29.987
42.9800 30.635
43.0000 31.685
43.0200 30.754
43.0400 30.041
43.0600 30.018
43.0800 29.991
43.1000 30.335
43.1200 30.535
43.1400 30.252
43.1600 31.192
43.1800 30.561
43.2000 31.212
43.2200 31.326
43.2400 30.016
43.2600 29.831
43.2800 30.695
43.3000 30.797
43.3200 30.501
43.3400 30.208
43.3600 29.902
43.3800 31.313
43.4000 31.473
43.4200 30.049
43.4400 30.464
43.4600 31.425
43.4800 30.583
43.5000 32.233
43.5200 30.826
43.5400 30.464
43.5600 31.292
43.5800 32.119
43.6000 32.276
43.6200 31.928
43.6400 31.164
43.6600 31.516
43.6800 31.102
43.7000 31.819
43.7200 31.994
43.7400 31.976
43.7600 32.279
43.7800 31.980
43.8000 32.328
43.8200 32.622
43.8400 32.221
43.8600 32.532
43.8800 33.560
43.9000 33.422
43.9200 34.031
43.9400 33.682
43.9600 33.783
43.9800 34.855
44.0000 36.146
44.0200 37.816
44.0400 40.184
44.0600 44.275
44.0800 47.766
44.1000 53.630
44.1200 57.156
44.1400 61.545
44.1600 62.378
44.1800 61.880
44.2000 59.150
44.2200 55.910
44.2400 54.822
44.2600 52.544
44.2800 49.909
44.3000 47.495
44.3200 44.664
44.3400 40.875
44.3600 37.679
44.3800 36.587
44.4000 35.131
44.4200 34.120
44.4400 34.593
44.4600 33.602
44.4800 32.980
44.5000 33.410
44.5200 32.744
44.5400 32.329
44.5600 32.187
44.5800 32.878
44.6000 32.379
44.6200 31.960
44.6400 31.890
44.6600 31.713
44.6800 32.333
44.7000 32.990
44.7200 32.126
44.7400 33.016
44.7600 33.417
44.7800 34.536
44.8000 38.446
44.8200 42.926
44.8400 43.263
44.8600 42.752
44.8800 40.526
44.9000 38.860
44.9200 40.039
44.9400 42.719
44.9600 43.892
44.9800 43.377
45.0000 41.277
45.0200 40.696
45.0400 41.503
45.0600 41.261
45.0800 40.603
45.1000 40.155
45.1200 40.132
45.1400 41.725
45.1600 40.620
45.1800 40.257
45.2000 40.681
45.2200 39.496
45.2400 38.743
45.2600 38.490
45.2800 38.560
45.3000 38.594
45.3200 37.592
45.3400 37.391
45.3600 35.993
45.3800 36.567
45.4000 35.510
45.4200 34.599
45.4400 34.879
45.4600 34.712
45.4800 33.601
45.5000 33.596
45.5200 33.387
45.5400 33.087
45.5600 33.038
45.5800 33.000
45.6000 32.790
45.6200 32.181
45.6400 32.269
45.6600 32.928
45.6800 31.548
45.7000 33.323
45.7200 32.578
45.7400 31.956
45.7600 32.200
45.7800 31.617
45.8000 32.609
45.8200 32.213
45.8400 31.799
45.8600 32.315
45.8800 32.126
45.9000 32.101
45.9200 31.646
45.9400 32.338
45.9600 32.261
45.9800 32.525
46.0000 31.924
46.0200 31.927
46.0400 32.218
46.0600 31.653
46.0800 32.570
46.1000 32.121
46.1200 32.479
46.1400 31.886
46.1600 32.669
46.1800 32.721
46.2000 32.073
46.2200 32.075
46.2400 32.904
46.2600 32.750
46.2800 31.499
46.3000 32.201
46.3200 33.390
46.3400 32.731
46.3600 32.329
46.3800 32.880
46.4000 32.985
46.4200 32.293
46.4400 32.667
46.4600 33.394
46.4800 32.675
46.5000 32.644
46.5200 32.728
46.5400 32.641
46.5600 32.688
46.5800 32.450
46.6000 32.546
46.6200 33.024
46.6400 32.755
46.6600 32.752
46.6800 33.735
46.7000 33.210
46.7200 33.041
46.7400 33.181
46.7600 33.285
46.7800 33.296
46.8000 33.099
46.8200 33.125
46.8400 33.612
46.8600 33.357
46.8800 33.614
46.9000 32.713
46.9200 32.311
46.9400 33.124
46.9600 33.287
46.9800 33.101
47.0000 32.849
47.0200 32.697
47.0400 32.185
47.0600 32.696
47.0800 33.459
47.1000 33.457
47.1200 33.111
47.1400 33.259
47.1600 32.743
47.1800 33.502
47.2000 32.918
47.2200 32.763
47.2400 32.435
47.2600 33.019
47.2800 33.137
47.3000 32.946
47.3200 33.068
47.3400 32.515
47.3600 32.451
47.3800 33.229
47.4000 32.752
47.4200 33.807
47.4400 34.164
47.4600 32.877
47.4800 33.304
47.5000 32.701
47.5200 34.274
47.5400 33.429
47.5600 33.155
47.5800 33.118
47.6000 32.914
47.6200 33.747
47.6400 34.221
47.6600 33.764
47.6800 33.656
47.7000 33.571
47.7200 32.944
47.7400 33.385
47.7600 33.740
47.7800 32.946
47.8000 33.512
47.8200 32.586
47.8400 33.229
47.8600 33.327
47.8800 33.762
47.9000 33.817
47.9200 33.871
47.9400 33.761
47.9600 33.911
47.9800 33.639
48.0000 33.779
48.0200 32.945
48.0400 34.289
48.0600 34.144
48.0800 33.754
48.1000 34.559
48.1200 34.153
48.1400 33.546
48.1600 34.967
48.1800 34.484
48.2000 33.905
48.2200 33.530
48.2400 33.116
48.2600 33.395
48.2800 34.279
48.3000 33.444
48.3200 33.169
48.3400 33.794
48.3600 34.318
48.3800 33.453
48.4000 34.282
48.4200 32.618
48.4400 33.209
48.4600 33.549
48.4800 33.665
48.5000 33.532
48.5200 34.797
48.5400 34.370
48.5600 34.263
48.5800 34.054
48.6000 34.854
48.6200 34.600
48.6400 34.064
48.6600 34.158
48.6800 34.916
48.7000 35.244
48.7200 34.760
48.7400 34.858
48.7600 34.190
48.7800 34.421
48.8000 34.794
48.8200 34.123
48.8400 34.595
48.8600 34.083
48.8800 33.825
48.9000 33.979
48.9200 34.831
48.9400 33.810
48.9600 34.582
48.9800 34.002
49.0000 34.642
49.0200 33.904
49.0400 34.147
49.0600 34.412
49.0800 33.663
49.1000 34.252
49.1200 34.242
49.1400 34.014
49.1600 34.328
49.1800 34.325
49.2000 34.874
49.2200 35.665
49.2400 34.692
49.2600 35.549
49.2800 34.548
49.3000 34.939
49.3200 34.272
49.3400 34.904
49.3600 34.120
49.3800 34.199
49.4000 34.764
49.4200 34.092
49.4400 34.805
49.4600 34.993
49.4800 34.553
49.5000 34.919
49.5200 35.034
49.5400 35.357
49.5600 34.979
49.5800 34.580
49.6000 34.796
49.6200 34.593
49.6400 34.593
49.6600 35.644
49.6800 35.514
49.7000 35.296
49.7200 34.785
49.7400 35.394
49.7600 34.665
49.7800 35.486
49.8000 35.401
49.8200 34.815
49.8400 35.497
49.8600 36.014
49.8800 35.432
49.9000 34.774
49.9200 34.743
49.9400 34.684
49.9600 34.759
49.9800 35.245
50.0000 34.922
50.0200 35.173
50.0400 35.610
50.0600 34.968
50.0800 35.175
50.1000 35.816
50.1200 35.409
50.1400 35.226
50.1600 35.636
50.1800 34.649
50.2000 36.155
50.2200 35.508
50.2400 35.326
50.2600 35.528
50.2800 36.481
50.3000 35.329
50.3200 35.576
50.3400 35.111
50.3600 35.897
50.3800 35.760
50.4000 35.363
50.4200 35.922
50.4400 35.521
50.4600 36.146
50.4800 35.092
50.5000 35.887
50.5200 36.107
50.5400 36.187
50.5600 35.717
50.5800 36.576
50.6000 35.836
50.6200 35.764
50.6400 36.268
50.6600 35.869
50.6800 35.457
50.7000 36.220
50.7200 36.550
50.7400 36.873
50.7600 36.177
50.7800 35.545
50.8000 36.690
50.8200 36.023
50.8400 36.133
50.8600 36.922
50.8800 36.209
50.9000 36.556
50.9200 36.082
50.9400 36.146
50.9600 37.039
50.9800 36.775
51.0000 36.732
51.0200 37.345
51.0400 37.283
51.0600 37.355
51.0800 36.613
51.1000 35.833
51.1200 36.387
51.1400 36.644
51.1600 36.913
51.1800 36.824
51.2000 37.154
51.2200 37.470
51.2400 37.626
51.2600 37.511
51.2800 36.603
51.3000 35.965
51.3200 37.248
51.3400 37.301
51.3600 36.774
51.3800 37.061
51.4000 37.624
51.4200 35.588
51.4400 37.944
51.4600 37.312
51.4800 36.899
51.5000 37.105
51.5200 36.794
51.5400 36.963
51.5600 37.899
51.5800 37.051
51.6000 37.482
51.6200 37.961
51.6400 37.053
51.6600 37.218
51.6800 37.180
51.7000 36.997
51.7200 37.281
51.7400 36.233
51.7600 37.119
51.7800 37.481
51.8000 37.393
51.8200 38.023
51.8400 37.338
51.8600 37.521
51.8800 36.390
51.9000 35.723
51.9200 37.466
51.9400 38.143
51.9600 37.224
51.9800 36.951
52.0000 37.260
52.0200 37.479
52.0400 36.835
52.0600 36.725
52.0800 36.615
52.1000 37.655
52.1200 38.073
52.1400 37.444
52.1600 37.426
52.1800 36.828
52.2000 37.061
52.2200 36.788
52.2400 37.951
52.2600 37.973
52.2800 36.475
52.3000 37.517
52.3200 37.515
52.3400 37.034
52.3600 37.205
52.3800 37.298
52.4000 38.313
52.4200 37.562
52.4400 38.225
52.4600 37.583
52.4800 37.757
52.5000 37.316
52.5200 37.646
52.5400 37.697
52.5600 37.282
52.5800 36.840
52.6000 37.547
52.6200 38.433
52.6400 37.309
52.6600 39.434
52.6800 38.392
52.7000 39.214
52.7200 38.187
52.7400 37.789
52.7600 37.767
52.7800 38.292
52.8000 37.510
52.8200 38.473
52.8400 38.508
52.8600 38.954
52.8800 38.001
52.9000 38.652
52.9200 38.332
52.9400 37.276
52.9600 37.999
52.9800 38.141
53.0000 37.795
53.0200 37.641
53.0400 38.105
53.0600 37.177
53.0800 37.995
53.1000 38.045
53.1200 37.541
53.1400 37.613
53.1600 38.444
53.1800 38.169
53.2000 37.557
53.2200 39.540
53.2400 38.593
53.2600 38.763
53.2800 38.663
53.3000 39.356
53.3200 38.383
53.3400 38.152
53.3600 37.763
53.3800 37.524
53.4000 38.199
53.4200 38.034
53.4400 37.712
53.4600 38.602
53.4800 38.694
53.5000 39.203
53.5200 38.604
53.5400 38.642
53.5600 37.699
53.5800 38.392
53.6000 38.280
53.6200 38.065
53.6400 38.463
53.6600 37.890
53.6800 38.062
53.7000 39.343
53.7200 38.443
53.7400 38.511
53.7600 38.264
53.7800 39.252
53.8000 38.614
53.8200 38.606
53.8400 38.710
53.8600 37.919
53.8800 38.068
53.9000 38.640
53.9200 38.416
53.9400 38.524
53.9600 38.493
53.9800 39.319
54.0000 39.074
54.0200 39.047
54.0400 39.388
54.0600 37.707
54.0800 39.029
54.1000 38.363
54.1200 37.907
54.1400 37.583
54.1600 38.681
54.1800 39.174
54.2000 38.752
54.2200 37.860
54.2400 38.639
54.2600 38.376
54.2800 39.102
54.3000 38.310
54.3200 39.473
54.3400 38.033
54.3600 38.024
54.3800 38.137
54.4000 38.515
54.4200 38.415
54.4400 38.783
54.4600 38.579
54.4800 38.571
54.5000 39.770
54.5200 39.505
54.5400 39.186
54.5600 39.964
54.5800 38.517
54.6000 38.637
54.6200 38.667
54.6400 39.052
54.6600 39.037
54.6800 38.081
54.7000 40.032
54.7200 39.074
54.7400 38.625
54.7600 38.914
54.7800 39.200
54.8000 39.804
54.8200 39.370
54.8400 39.458
54.8600 38.886
54.8800 39.207
54.9000 39.829
54.9200 39.020
54.9400 38.937
54.9600 38.420
54.9800 39.141
55.0000 39.018
55.0200 39.425
55.0400 39.086
55.0600 39.840
55.0800 38.834
55.1000 39.416
55.1200 38.540
55.1400 38.559
55.1600 39.101
55.1800 39.177
55.2000 39.889
55.2200 40.583
55.2400 39.485
55.2600 38.593
55.2800 39.123
55.3000 39.470
55.3200 39.464
55.3400 39.059
55.3600 38.761
55.3800 39.432
55.4000 40.012
55.4200 40.580
55.4400 39.541
55.4600 39.731
55.4800 39.042
55.5000 38.515
55.5200 40.299
55.5400 39.727
55.5600 39.796
55.5800 38.695
55.6000 38.878
55.6200 39.718
55.6400 39.793
55.6600 40.023
55.6800 38.609
55.7000 39.511
55.7200 39.936
55.7400 39.509
55.7600 40.919
55.7800 40.546
55.8000 40.354
55.8200 39.787
55.8400 40.290
55.8600 39.413
55.8800 40.187
55.9000 40.518
55.9200 39.790
55.9400 39.855
55.9600 39.783
55.9800 40.472
56.0000 40.611
56.0200 40.686
56.0400 40.420
56.0600 40.832
56.0800 40.531
56.1000 40.429
56.1200 40.208
56.1400 40.622
56.1600 40.035
56.1800 40.610
56.2000 40.084
56.2200 40.162
56.2400 40.479
56.2600 41.037
56.2800 41.251
56.3000 41.413
56.3200 40.964
56.3400 42.191
56.3600 42.095
56.3800 40.747
56.4000 41.502
56.4200 40.728
56.4400 41.404
56.4600 41.442
56.4800 40.893
56.5000 40.102
56.5200 41.503
56.5400 41.070
56.5600 40.635
56.5800 41.578
56.6000 41.260
56.6200 41.102
56.6400 41.215
56.6600 41.309
56.6800 41.217
56.7000 41.531
56.7200 41.938
56.7400 41.309
56.7600 40.472
56.7800 40.364
56.8000 41.499
56.8200 40.242
56.8400 39.855
56.8600 40.876
56.8800 40.859
56.9000 41.148
56.9200 41.698
56.9400 41.220
56.9600 41.139
56.9800 41.770
57.0000 41.398
57.0200 41.412
57.0400 41.423
57.0600 41.641
57.0800 41.361
57.1000 40.993
57.1200 41.654
57.1400 41.047
57.1600 40.696
57.1800 42.106
57.2000 41.884
57.2200 41.493
57.2400 41.350
57.2600 40.874
57.2800 41.229
57.3000 41.509
57.3200 40.397
57.3400 42.036
57.3600 40.912
57.3800 41.964
57.4000 42.542
57.4200 41.785
57.4400 42.717
57.4600 41.957
57.4800 42.110
57.5000 41.794
57.5200 41.716
57.5400 42.604
57.5600 42.069
57.5800 42.075
57.6000 41.781
57.6200 42.669
57.6400 41.509
57.6600 41.999
57.6800 41.751
57.7000 41.932
57.7200 42.767
57.7400 42.626
57.7600 41.908
57.7800 43.174
57.8000 42.133
57.8200 42.987
57.8400 42.900
57.8600 43.118
57.8800 43.044
57.9000 43.905
57.9200 44.017
57.9400 43.797
57.9600 43.734
57.9800 42.898
58.0000 43.266
58.0200 43.993
58.0400 44.041
58.0600 43.852
58.0800 44.585
58.1000 44.493
58.1200 44.509
58.1400 44.296
58.1600 44.741
58.1800 46.197
58.2000 45.597
58.2200 46.240
58.2400 45.197
58.2600 46.357
58.2800 46.726
58.3000 47.315
58.3200 47.335
58.3400 47.858
58.3600 48.424
58.3800 48.640
58.4000 48.770
58.4200 49.279
58.4400 48.944
58.4600 48.494
58.4800 49.231
58.5000 50.455
58.5200 49.817
58.5400 50.495
58.5600 50.673
58.5800 50.639
58.6000 50.366
58.6200 49.649
58.6400 49.631
58.6600 50.737
58.6800 50.844
58.7000 50.470
58.7200 50.004
58.7400 50.453
58.7600 49.737
58.7800 49.489
58.8000 50.602
58.8200 50.210
58.8400 50.265
58.8600 50.624
58.8800 50.288
58.9000 49.739
58.9200 49.936
58.9400 48.782
58.9600 48.273
58.9800 48.275
59.0000 48.333
59.0200 47.092
59.0400 47.738
59.0600 46.498
59.0800 46.354
59.1000 46.549
59.1200 45.032
59.1400 45.375
59.1600 45.830
59.1800 43.886
59.2000 45.103
59.2200 44.522
59.2400 44.491
59.2600 44.293
59.2800 43.741
59.3000 43.934
59.3200 43.904
59.3400 42.952
59.3600 44.162
59.3800 43.220
59.4000 42.762
59.4200 43.878
59.4400 42.786
59.4600 43.128
59.4800 43.229
59.5000 42.953
59.5200 43.562
59.5400 43.644
59.5600 43.954
59.5800 44.295
59.6000 42.997
59.6200 44.011
59.6400 42.543
59.6600 44.022
59.6800 44.241
59.7000 43.934
59.7200 43.128
59.7400 42.002
59.7600 42.998
59.7800 43.785
59.8000 43.145
59.8200 43.921
59.8400 43.685
59.8600 43.341
59.8800 44.108
59.9000 43.568
59.9200 43.305
59.9400 43.826
59.9600 42.806
59.9800 43.266
60.0000 43.469
60.0200 43.150
60.0400 42.408
60.0600 42.629
60.0800 42.981
60.1000 43.157
60.1200 43.802
60.1400 43.025
60.1600 43.251
60.1800 43.548
60.2000 42.628
60.2200 44.419
60.2400 44.361
60.2600 43.946
60.2800 43.168
60.3000 43.067
60.3200 43.432
60.3400 43.342
60.3600 44.202
60.3800 43.408
60.4000 43.066
60.4200 43.339
60.4400 44.949
60.4600 42.668
60.4800 44.040
60.5000 43.046
60.5200 43.310
60.5400 42.905
60.5600 43.129
60.5800 43.962
60.6000 43.833
60.6200 43.332
60.6400 42.852
60.6600 43.900
60.6800 43.368
60.7000 44.264
60.7200 43.735
60.7400 43.020
60.7600 43.143
60.7800 43.114
60.8000 44.247
60.8200 43.734
60.8400 43.909
60.8600 43.454
60.8800 43.142
60.9000 43.785
60.9200 43.182
60.9400 44.764
60.9600 43.330
60.9800 44.560
61.0000 44.558
61.0200 43.679
61.0400 43.096
61.0600 44.472
61.0800 44.224
61.1000 43.504
61.1200 43.297
61.1400 43.396
61.1600 44.332
61.1800 44.029
61.2000 43.176
61.2200 43.731
61.2400 43.074
61.2600 44.009
61.2800 44.420
61.3000 43.956
61.3200 43.276
61.3400 44.221
61.3600 43.972
61.3800 44.101
61.4000 44.622
61.4200 44.907
61.4400 44.400
61.4600 44.597
61.4800 44.977
61.5000 44.159
61.5200 44.371
61.5400 44.335
61.5600 44.375
61.5800 44.324
61.6000 44.792
61.6200 44.440
61.6400 44.888
61.6600 44.878
61.6800 44.570
61.7000 44.574
61.7200 44.085
61.7400 44.778
61.7600 44.425
61.7800 44.760
61.8000 45.798
61.8200 45.356
61.8400 45.753
61.8600 46.494
61.8800 46.374
61.9000 45.033
61.9200 46.627
61.9400 46.249
61.9600 44.932
61.9800 45.076
62.0000 45.064
62.0200 45.178
62.0400 46.153
62.0600 45.226
62.0800 45.005
62.1000 44.747
62.1200 44.935
62.1400 45.272
62.1600 45.304
62.1800 44.922
62.2000 45.132
62.2200 45.168
62.2400 44.741
62.2600 45.808
62.2800 43.740
62.3000 44.234
62.3200 44.462
62.3400 44.525
62.3600 44.715
62.3800 44.580
62.4000 44.724
62.4200 44.539
62.4400 44.947
62.4600 45.719
62.4800 45.117
62.5000 45.729
62.5200 45.125
62.5400 44.469
62.5600 44.830
62.5800 45.183
62.6000 46.086
62.6200 44.143
62.6400 45.145
62.6600 45.227
62.6800 45.900
62.7000 44.713
62.7200 44.580
62.7400 44.972
62.7600 46.560
62.7800 45.520
62.8000 44.956
62.8200 45.201
62.8400 45.302
62.8600 45.682
62.8800 45.975
62.9000 44.904
62.9200 45.560
62.9400 44.417
62.9600 44.349
62.9800 43.562
63.0000 45.355
63.0200 44.979
63.0400 44.813
63.0600 44.607
63.0800 45.040
63.1000 44.914
63.1200 45.844
63.1400 46.014
63.1600 45.943
63.1800 45.383
63.2000 45.458
63.2200 45.743
63.2400 45.381
63.2600 44.976
63.2800 45.442
63.3000 45.400
63.3200 44.792
63.3400 44.706
63.3600 45.993
63.3800 45.478
63.4000 44.574
63.4200 45.704
63.4400 45.592
63.4600 44.710
63.4800 45.014
63.5000 45.069
63.5200 45.390
63.5400 45.558
63.5600 45.119
63.5800 46.189
63.6000 46.457
63.6200 45.457
63.6400 44.894
63.6600 45.438
63.6800 45.865
63.7000 44.613
63.7200 45.144
63.7400 45.646
63.7600 46.530
63.7800 45.540
63.8000 45.329
63.8200 46.320
63.8400 47.138
63.8600 46.316
63.8800 46.303
63.9000 46.330
63.9200 46.799
63.9400 47.362
63.9600 47.184
63.9800 46.785
64.0000 46.708
64.0200 47.196
64.0400 46.701
64.0600 46.693
64.0800 48.123
64.1000 46.431
64.1200 47.359
64.1400 47.637
64.1600 48.748
64.1800 48.574
64.2000 50.621
64.2200 51.858
64.2400 52.368
64.2600 52.714
64.2800 54.195
64.3000 55.080
64.3200 55.286
64.3400 55.496
64.3600 56.276
64.3800 55.572
64.4000 54.274
64.4200 54.942
64.4400 54.314
64.4600 54.178
64.4800 53.078
64.5000 54.036
64.5200 53.034
64.5400 51.993
64.5600 50.885
64.5800 50.376
64.6000 50.740
64.6200 50.291
64.6400 49.042
64.6600 49.467
64.6800 49.365
64.7000 48.135
64.7200 48.261
64.7400 47.870
64.7600 48.141
64.7800 47.971
64.8000 47.888
64.8200 47.649
64.8400 46.903
64.8600 46.216
64.8800 47.545
64.9000 46.607
64.9200 46.972
64.9400 47.501
64.9600 47.126
64.9800 46.579
65.0000 46.227
65.0200 46.757
65.0400 45.851
65.0600 47.084
65.0800 46.591
65.1000 47.337
65.1200 47.243
65.1400 46.895
65.1600 47.745
65.1800 46.485
65.2000 46.610
65.2200 46.463
65.2400 46.189
65.2600 46.735
65.2800 45.910
65.3000 47.114
65.3200 47.146
65.3400 46.248
65.3600 46.939
65.3800 47.777
65.4000 47.572
65.4200 47.595
65.4400 47.125
65.4600 46.881
65.4800 47.456
65.5000 46.742
65.5200 46.869
65.5400 46.283
65.5600 46.527
65.5800 46.690
65.6000 46.973
65.6200 46.729
65.6400 47.063
65.6600 47.705
65.6800 46.671
65.7000 46.553
65.7200 46.856
65.7400 46.932
65.7600 47.337
65.7800 47.182
65.8000 47.213
65.8200 47.356
65.8400 46.656
65.8600 47.822
65.8800 48.044
65.9000 47.969
65.9200 47.623
65.9400 48.347
65.9600 47.053
65.9800 47.461
66.0000 47.148
66.0200 47.779
66.0400 46.999
66.0600 47.963
66.0800 47.708
66.1000 47.817
66.1200 46.887
66.1400 47.446
66.1600 46.243
66.1800 47.698
66.2000 47.920
66.2200 48.129
66.2400 47.445
66.2600 47.496
66.2800 47.389
66.3000 47.737
66.3200 47.379
66.3400 47.354
66.3600 46.978
66.3800 46.726
66.4000 47.133
66.4200 47.255
66.4400 47.595
66.4600 46.897
66.4800 48.078
66.5000 47.534
66.5200 47.998
66.5400 47.283
66.5600 47.566
66.5800 47.563
66.6000 47.610
66.6200 47.790
66.6400 47.175
66.6600 47.802
66.6800 47.753
66.7000 47.354
66.7200 47.373
66.7400 46.781
66.7600 47.881
66.7800 47.751
66.8000 48.708
66.8200 48.330
66.8400 47.886
66.8600 47.523
66.8800 48.988
66.9000 49.171
66.9200 48.666
66.9400 48.100
66.9600 48.021
66.9800 46.740
67.0000 48.004
67.0200 46.993
67.0400 48.415
67.0600 47.979
67.0800 48.034
67.1000 48.542
67.1200 49.495
67.1400 48.177
67.1600 48.532
67.1800 49.332
67.2000 48.786
67.2200 48.666
67.2400 49.103
67.2600 48.770
67.2800 48.650
67.3000 48.014
67.3200 48.956
67.3400 49.652
67.3600 48.826
67.3800 49.038
67.4000 48.878
67.4200 47.797
67.4400 48.813
67.4600 49.736
67.4800 49.615
67.5000 49.111
67.5200 49.416
67.5400 49.067
67.5600 48.978
67.5800 49.185
67.6000 48.988
67.6200 49.558
67.6400 49.979
67.6600 50.600
67.6800 49.881
67.7000 49.839
67.7200 48.795
67.7400 50.478
67.7600 50.731
67.7800 49.391
67.8000 48.724
67.8200 49.300
67.8400 49.574
67.8600 49.174
67.8800 49.384
67.9000 49.178
67.9200 49.484
67.9400 49.605
67.9600 49.134
67.9800 50.643
68.0000 48.915
68.0200 48.479
68.0400 49.594
68.0600 48.322
68.0800 48.182
68.1000 48.511
68.1200 49.267
68.1400 48.516
68.1600 48.001
68.1800 48.561
68.2000 48.891
68.2200 47.984
68.2400 48.664
68.2600 49.162
68.2800 48.229
68.3000 49.206
68.3200 48.208
68.3400 48.777
68.3600 47.771
68.3800 47.927
68.4000 48.034
68.4200 48.821
68.4400 49.424
68.4600 49.371
68.4800 49.227
68.5000 49.379
68.5200 49.334
68.5400 49.544
68.5600 48.958
68.5800 47.821
68.6000 48.564
68.6200 48.271
68.6400 48.328
68.6600 48.786
68.6800 48.574
68.7000 47.678
68.7200 47.994
68.7400 49.188
68.7600 48.925
68.7800 49.400
68.8000 49.701
68.8200 48.732
68.8400 49.422
68.8600 49.316
68.8800 47.989
68.9000 48.570
68.9200 49.328
68.9400 48.622
68.9600 49.461
68.9800 48.885
69.0000 48.885
69.0200 49.050
69.0400 48.820
69.0600 49.012
69.0800 48.887
69.1000 49.225
69.1200 48.673
69.1400 49.518
69.1600 50.100
69.1800 49.046
69.2000 48.977
69.2200 48.975
69.2400 48.750
69.2600 49.096
69.2800 49.514
69.3000 48.618
69.3200 49.051
69.3400 49.374
69.3600 49.234
69.3800 49.505
69.4000 49.392
69.4200 49.144
69.4400 48.916
69.4600 49.028
69.4800 49.426
69.5000 50.030
69.5200 50.324
69.5400 49.683
69.5600 49.811
69.5800 49.002
69.6000 49.390
69.6200 49.238
69.6400 50.321
69.6600 50.034
69.6800 48.995
69.7000 49.113
69.7200 49.598
69.7400 48.649
69.7600 48.908
69.7800 49.103
69.8000 49.924
69.8200 49.245
69.8400 49.633
69.8600 49.582
69.8800 49.439
69.9000 50.661
69.9200 49.398
69.9400 49.541
69.9600 49.688
69.9800 49.154
70.0000 50.244
70.0200 50.606
70.0400 49.983
70.0600 50.092
70.0800 50.058
70.1000 50.069
70.1200 49.684
70.1400 49.275
70.1600 50.100
70.1800 49.668
70.2000 50.902
70.2200 50.340
70.2400 50.682
70.2600 49.196
70.2800 50.665
70.3000 50.635
70.3200 50.320
70.3400 51.019
70.3600 50.291
70.3800 50.059
70.4000 50.750
70.4200 49.786
70.4400 49.874
70.4600 50.496
70.4800 50.129
70.5000 50.613
70.5200 50.328
70.5400 51.299
70.5600 50.285
70.5800 50.727
70.6000 50.587
70.6200 49.924
70.6400 50.465
70.6600 50.230
70.6800 50.805
70.7000 49.981
70.7200 50.219
70.7400 51.167
70.7600 51.069
70.7800 51.176
70.8000 51.074
70.8200 49.921
70.8400 51.155
70.8600 50.054
70.8800 50.546
70.9000 50.336
70.9200 50.791
70.9400 50.847
70.9600 49.879
70.9800 50.798
71.0000 50.320
71.0200 50.039
71.0400 50.479
71.0600 50.941
71.0800 50.119
71.1000 50.284
71.1200 50.351
71.1400 49.854
71.1600 50.697
71.1800 49.916
71.2000 52.069
71.2200 51.616
71.2400 50.819
71.2600 51.237
71.2800 50.947
71.3000 51.024
71.3200 51.581
71.3400 50.728
71.3600 51.447
71.3800 51.094
71.4000 52.032
71.4200 51.587
71.4400 50.883
71.4600 51.336
71.4800 50.739
71.5000 50.889
71.5200 50.821
71.5400 51.326
71.5600 51.196
71.5800 51.536
71.6000 51.335
71.6200 51.070
71.6400 51.722
71.6600 50.950
71.6800 50.085
71.7000 49.799
71.7200 51.373
71.7400 51.516
71.7600 51.155
71.7800 51.106
71.8000 50.453
71.8200 50.255
71.8400 50.514
71.8600 50.783
71.8800 50.779
71.9000 51.096
71.9200 51.792
71.9400 51.037
71.9600 50.496
71.9800 50.623
72.0000 51.462
72.0200 51.636
72.0400 51.429
72.0600 52.409
72.0800 50.927
72.1000 51.104
72.1200 51.995
72.1400 50.962
72.1600 50.832
72.1800 51.720
72.2000 51.046
72.2200 51.243
72.2400 51.300
72.2600 51.770
72.2800 51.881
72.3000 51.915
72.3200 51.487
72.3400 52.491
72.3600 51.148
72.3800 51.587
72.4000 52.330
72.4200 52.451
72.4400 52.209
72.4600 51.938
72.4800 53.422
72.5000 51.889
72.5200 52.749
72.5400 51.888
72.5600 52.255
72.5800 51.973
72.6000 52.466
72.6200 52.151
72.6400 51.876
72.6600 51.670
72.6800 51.790
72.7000 52.224
72.7200 51.762
72.7400 52.439
72.7600 53.232
72.7800 52.365
72.8000 51.920
72.8200 52.458
72.8400 53.314
72.8600 52.779
72.8800 53.181
72.9000 53.663
72.9200 52.886
72.9400 51.661
72.9600 51.511
72.9800 51.638
73.0000 52.356
73.0200 51.488
73.0400 52.310
73.0600 53.143
73.0800 51.619
73.1000 52.239
73.1200 51.285
73.1400 52.238
73.1600 52.080
73.1800 53.832
73.2000 53.154
73.2200 53.402
73.2400 52.285
73.2600 52.041
73.2800 52.270
73.3000 51.425
73.3200 51.637
73.3400 52.250
73.3600 52.949
73.3800 52.746
73.4000 52.486
73.4200 52.991
73.4400 53.680
73.4600 52.837
73.4800 52.765
73.5000 52.423
73.5200 53.266
73.5400 53.043
73.5600 53.184
73.5800 53.369
73.6000 51.692
73.6200 52.072
73.6400 52.022
73.6600 52.278
73.6800 52.767
73.7000 52.263
73.7200 53.010
73.7400 51.779
73.7600 53.269
73.7800 52.521
73.8000 53.042
73.8200 53.627
73.8400 53.652
73.8600 52.467
73.8800 53.726
73.9000 53.759
73.9200 53.466
73.9400 52.420
73.9600 52.676
73.9800 52.730
74.0000 52.518
74.0200 52.518
74.0400 53.540
74.0600 53.247
74.0800 53.587
74.1000 53.155
74.1200 54.104
74.1400 53.141
74.1600 53.682
74.1800 52.718
74.2000 53.612
74.2200 52.665
74.2400 53.884
74.2600 53.801
74.2800 53.819
74.3000 53.215
74.3200 53.744
74.3400 53.728
74.3600 54.193
74.3800 53.807
74.4000 54.141
74.4200 53.036
74.4400 53.242
74.4600 52.575
74.4800 53.865
74.5000 54.527
74.5200 53.502
74.5400 53.554
74.5600 53.989
74.5800 54.446
74.6000 53.845
74.6200 53.507
74.6400 54.122
74.6600 54.264
74.6800 52.590
74.7000 53.311
74.7200 54.828
74.7400 54.219
74.7600 53.255
74.7800 53.012
74.8000 54.280
74.8200 53.999
74.8400 53.297
74.8600 54.283
74.8800 53.318
74.9000 54.311
74.9200 53.860
74.9400 53.138
74.9600 52.872
74.9800 54.686
75.0000 54.492
75.0200 54.610
75.0400 53.996
75.0600 54.448
75.0800 53.974
75.1000 53.534
75.1200 53.241
75.1400 54.094
75.1600 54.930
75.1800 54.576
75.2000 54.016
75.2200 54.630
75.2400 53.809
75.2600 54.215
75.2800 54.435
75.3000 55.192
75.3200 54.607
75.3400 55.353
75.3600 54.738
75.3800 54.229
75.4000 54.147
75.4200 54.423
75.4400 54.485
75.4600 54.116
75.4800 53.844
75.5000 55.522
75.5200 54.308
75.5400 54.305
75.5600 54.387
75.5800 55.833
75.6000 54.242
75.6200 54.932
75.6400 54.690
75.6600 55.985
75.6800 55.058
75.7000 55.026
75.7200 54.219
75.7400 54.697
75.7600 54.785
75.7800 54.760
75.8000 54.720
75.8200 54.072
75.8400 54.955
75.8600 55.496
75.8800 55.524
75.9000 55.306
75.9200 54.508
75.9400 54.151
75.9600 56.382
75.9800 54.763
76.0000 54.583
76.0200 54.533
76.0400 54.872
76.0600 55.108
76.0800 53.604
76.1000 54.768
76.1200 55.732
76.1400 54.579
76.1600 55.424
76.1800 54.784
76.2000 55.405
76.2200 55.487
76.2400 55.669
76.2600 56.682
76.2800 55.209
76.3000 56.017
76.3200 55.020
76.3400 55.376
76.3600 55.051
76.3800 54.699
76.4000 55.939
76.4200 55.886
76.4400 55.627
76.4600 55.849
76.4800 55.328
76.5000 54.360
76.5200 54.802
76.5400 55.202
76.5600 55.373
76.5800 55.926
76.6000 55.219
76.6200 55.905
76.6400 55.753
76.6600 53.783
76.6800 54.909
76.7000 54.977
76.7200 55.632
76.7400 55.929
76.7600 55.352
76.7800 55.671
76.8000 55.703
76.8200 56.529
76.8400 55.650
76.8600 56.052
76.8800 55.421
76.9000 55.453
76.9200 56.051
76.9400 55.440
76.9600 55.757
76.9800 54.890
77.0000 54.548
77.0200 55.357
77.0400 55.299
77.0600 56.274
77.0800 55.851
77.1000 55.999
77.1200 55.201
77.1400 55.008
77.1600 55.806
77.1800 55.551
77.2000 56.094
77.2200 55.899
77.2400 55.197
77.2600 56.770
77.2800 56.757
77.3000 56.154
77.3200 55.473
77.3400 55.509
77.3600 56.396
77.3800 56.992
77.4000 57.008
77.4200 56.908
77.4400 57.389
77.4600 56.593
77.4800 55.680
77.5000 55.914
77.5200 56.447
77.5400 57.217
77.5600 55.902
77.5800 56.569
77.6000 55.747
77.6200 55.547
77.6400 55.886
77.6600 56.668
77.6800 56.905
77.7000 56.506
77.7200 55.359
77.7400 56.732
77.7600 56.938
77.7800 56.213
77.8000 55.440
77.8200 56.436
77.8400 57.428
77.8600 57.096
77.8800 56.396
77.9000 56.835
77.9200 56.587
77.9400 56.600
77.9600 56.864
77.9800 56.777
78.0000 57.619
78.0200 55.728
78.0400 56.840
78.0600 57.744
78.0800 56.695
78.1000 56.940
78.1200 56.848
78.1400 56.244
78.1600 55.818
78.1800 56.463
78.2000 56.889
78.2200 57.411
78.2400 56.597
78.2600 57.965
78.2800 57.701
78.3000 57.470
78.3200 56.953
78.3400 57.328
78.3600 57.565
78.3800 56.323
78.4000 56.887
78.4200 56.567
78.4400 57.758
78.4600 57.311
78.4800 57.816
78.5000 56.893
78.5200 56.578
78.5400 56.514
78.5600 57.289
78.5800 57.513
78.6000 57.037
78.6200 56.610
78.6400 56.305
78.6600 57.756
78.6800 57.730
78.7000 57.331
78.7200 58.463
78.7400 57.655
78.7600 57.014
78.7800 57.929
78.8000 56.939
78.8200 56.548
78.8400 56.728
78.8600 57.697
78.8800 56.925
78.9000 58.577
78.9200 57.236
78.9400 56.715
78.9600 57.273
78.9800 56.908
79.0000 58.207
79.0200 57.479
79.0400 57.888
79.0600 58.750
79.0800 57.851
79.1000 57.607
79.1200 57.676
79.1400 57.310
79.1600 58.304
79.1800 56.891
79.2000 58.414
79.2200 57.912
79.2400 57.380
79.2600 57.486
79.2800 57.947
79.3000 59.104
79.3200 58.924
79.3400 57.468
79.3600 58.628
79.3800 60.196
79.4000 58.571
79.4200 59.300
79.4400 58.202
79.4600 58.639
79.4800 58.773
79.5000 57.581
79.5200 58.335
79.5400 56.643
79.5600 58.996
79.5800 59.279
79.6000 58.964
79.6200 58.272
79.6400 58.543
79.6600 57.772
79.6800 57.165
79.7000 57.180
79.7200 58.307
79.7400 59.369
79.7600 57.907
79.7800 57.925
79.8000 58.071
79.8200 58.525
79.8400 58.375
79.8600 59.435
79.8800 58.501
79.9000 58.502
79.9200 58.586
79.9400 59.209
79.9600 57.251
79.9800 57.893
80.0000 58.874
