'Id: "" Comment: "" Operator: "Lab Manager" Anode: "Cu" Scantype: "Coupled TwoTheta/Theta" TimePerStep: "113.4653" X: "9999" Y: "9999" Z: "-2.700037" 
20.0000 10.140
20.0200 10.189
20.0400 9.919
20.0600 9.584
20.0800 10.069
20.1000 10.344
20.1200 10.187
20.1400 9.999
20.1600 10.077
20.1800 9.813
20.2000 10.315
20.2200 10.005
20.2400 9.885
20.2600 10.302
20.2800 10.419
20.3000 10.867
20.3200 10.834
20.3400 10.206
20.3600 10.170
20.3800 11.033
20.4000 10.340
20.4200 10.394
20.4400 10.440
20.4600 10.168
20.4800 10.303
20.5000 10.478
20.5200 10.209
20.5400 10.472
20.5600 10.428
20.5800 10.221
20.6000 11.047
20.6200 10.970
20.6400 10.867
20.6600 10.286
20.6800 10.125
20.7000 10.676
20.7200 10.492
20.7400 10.413
20.7600 10.141
20.7800 10.409
20.8000 10.764
20.8200 10.466
20.8400 10.038
20.8600 9.925
20.8800 10.343
20.9000 10.492
20.9200 10.632
20.9400 10.763
20.9600 10.538
20.9800 10.717
21.0000 10.625
21.0200 10.076
21.0400 10.297
21.0600 10.745
21.0800 10.628
21.1000 10.887
21.1200 10.523
21.1400 10.982
21.1600 11.038
21.1800 10.604
21.2000 10.716
21.2200 10.927
21.2400 10.945
21.2600 10.999
21.2800 10.514
21.3000 10.634
21.3200 10.636
21.3400 10.953
21.3600 10.918
21.3800 10.811
21.4000 10.942
21.4200 11.374
21.4400 11.021
21.4600 11.076
21.4800 11.377
21.5000 11.078
21.5200 10.982
21.5400 11.028
21.5600 11.339
21.5800 11.175
21.6000 11.075
21.6200 10.860
21.6400 11.461
21.6600 11.241
21.6800 11.196
21.7000 11.078
21.7200 11.166
21.7400 11.183
21.7600 10.944
21.7800 10.888
21.8000 11.564
21.8200 11.113
21.8400 10.635
21.8600 10.953
21.8800 11.234
21.9000 11.549
21.9200 11.045
21.9400 11.162
21.9600 11.075
21.9800 11.541
22.0000 11.443
22.0200 11.372
22.0400 11.400
22.0600 11.477
22.0800 11.151
22.1000 11.053
22.1200 11.290
22.1400 11.814
22.1600 11.798
22.1800 11.406
22.2000 11.844
22.2200 11.483
22.2400 11.586
22.2600 11.936
22.2800 11.964
22.3000 11.469
22.3200 11.287
22.3400 11.140
22.3600 11.198
22.3800 11.438
22.4000 11.617
22.4200 12.068
22.4400 12.106
22.4600 12.020
22.4800 11.875
22.5000 11.349
22.5200 11.638
22.5400 11.383
22.5600 11.927
22.5800 12.239
22.6000 11.487
22.6200 11.677
22.6400 11.668
22.6600 11.596
22.6800 11.723
22.7000 11.606
22.7200 11.938
22.7400 12.144
22.7600 11.729
22.7800 11.636
22.8000 11.873
22.8200 12.317
22.8400 12.279
22.8600 12.471
22.8800 12.071
22.9000 12.079
22.9200 12.405
22.9400 12.265
22.9600 11.785
22.9800 12.142
23.0000 12.002
23.0200 11.531
23.0400 12.007
23.0600 11.680
23.0800 11.959
23.1000 11.966
23.1200 12.061
23.1400 11.681
23.1600 12.550
23.1800 12.419
23.2000 11.983
23.2200 12.246
23.2400 12.632
23.2600 12.659
23.2800 11.955
23.3000 12.505
23.3200 12.072
23.3400 12.354
23.3600 12.041
23.3800 12.376
23.4000 12.742
23.4200 12.470
23.4400 11.809
23.4600 11.787
23.4800 12.024
23.5000 12.330
23.5200 12.883
23.5400 12.465
23.5600 12.131
23.5800 12.030
23.6000 11.998
23.6200 12.576
23.6400 13.018
23.6600 12.295
23.6800 12.054
23.7000 12.142
23.7200 12.671
23.7400 12.222
23.7600 12.566
23.7800 12.604
23.8000 11.851
23.8200 12.391
23.8400 12.585
23.8600 12.722
23.8800 12.530
23.9000 12.788
23.9200 12.882
23.9400 12.363
23.9600 13.178
23.9800 12.749
24.0000 12.706
24.0200 12.772
24.0400 12.591
24.0600 12.966
24.0800 12.760
24.1000 12.938
24.1200 13.145
24.1400 13.285
24.1600 12.837
24.1800 12.662
24.2000 13.414
24.2200 13.414
24.2400 12.754
24.2600 12.761
24.2800 12.677
24.3000 12.835
24.3200 13.171
24.3400 12.384
24.3600 13.084
24.3800 12.546
24.4000 13.006
24.4200 14.100
24.4400 13.213
24.4600 13.080
24.4800 12.874
24.5000 13.376
24.5200 13.054
24.5400 13.052
24.5600 13.171
24.5800 12.921
24.6000 13.192
24.6200 13.256
24.6400 13.400
24.6600 13.196
24.6800 13.169
24.7000 13.029
24.7200 13.546
24.7400 12.752
24.7600 12.967
24.7800 12.835
24.8000 13.767
24.8200 13.380
24.8400 13.179
24.8600 13.593
24.8800 13.620
24.9000 13.355
24.9200 13.275
24.9400 13.477
24.9600 13.942
24.9800 14.029
25.0000 13.387
25.0200 13.521
25.0400 13.405
25.0600 13.541
25.0800 13.040
25.1000 13.158
25.1200 13.647
25.1400 13.451
25.1600 14.229
25.1800 14.485
25.2000 13.365
25.2200 14.174
25.2400 14.467
25.2600 13.901
25.2800 14.134
25.3000 14.292
25.3200 13.505
25.3400 13.832
25.3600 13.310
25.3800 13.740
25.4000 14.459
25.4200 13.906
25.4400 13.821
25.4600 13.749
25.4800 13.978
25.5000 13.969
25.5200 13.944
25.5400 14.324
25.5600 14.021
25.5800 13.729
25.6000 13.639
25.6200 14.241
25.6400 13.521
25.6600 14.245
25.6800 13.928
25.7000 13.592
25.7200 13.961
25.7400 13.681
25.7600 13.835
25.7800 13.781
25.8000 13.974
25.8200 14.447
25.8400 14.084
25.8600 14.085
25.8800 14.314
25.9000 14.464
25.9200 14.374
25.9400 14.481
25.9600 14.652
25.9800 14.255
26.0000 13.793
26.0200 14.324
26.0400 14.529
26.0600 13.969
26.0800 14.230
26.1000 14.354
26.1200 13.916
26.1400 14.681
26.1600 15.368
26.1800 14.710
26.2000 14.458
26.2200 15.011
26.2400 14.722
26.2600 14.725
26.2800 14.102
26.3000 14.287
26.3200 14.312
26.3400 14.967
26.3600 14.566
26.3800 14.101
26.4000 14.964
26.4200 14.891
26.4400 14.378
26.4600 14.731
26.4800 15.013
26.5000 14.656
26.5200 14.767
26.5400 15.063
26.5600 14.486
26.5800 14.740
26.6000 15.079
26.6200 14.377
26.6400 14.171
26.6600 14.782
26.6800 14.848
26.7000 15.083
26.7200 14.840
26.7400 15.132
26.7600 14.591
26.7800 14.921
26.8000 15.324
26.8200 15.114
26.8400 15.447
26.8600 15.336
26.8800 14.886
26.9000 15.121
26.9200 15.597
26.9400 15.947
26.9600 15.609
26.9800 15.272
27.0000 15.091
27.0200 14.641
27.0400 14.906
27.0600 15.380
27.0800 15.187
27.1000 15.925
27.1200 15.177
27.1400 15.417
27.1600 15.033
27.1800 15.191
27.2000 15.342
27.2200 15.609
27.2400 15.307
27.2600 14.617
27.2800 15.290
27.3000 15.266
27.3200 15.936
27.3400 15.766
27.3600 15.444
27.3800 15.606
27.4000 15.523
27.4200 16.254
27.4400 14.681
27.4600 15.304
27.4800 15.694
27.5000 16.213
27.5200 15.864
27.5400 16.197
27.5600 15.757
27.5800 15.825
27.6000 15.677
27.6200 15.578
27.6400 15.553
27.6600 16.186
27.6800 15.437
27.7000 15.560
27.7200 15.565
27.7400 15.500
27.7600 15.505
27.7800 15.401
27.8000 16.254
27.8200 16.478
27.8400 16.176
27.8600 15.986
27.8800 15.469
27.9000 15.898
27.9200 15.895
27.9400 15.380
27.9600 15.578
27.9800 16.244
28.0000 16.124
28.0200 15.904
28.0400 15.827
28.0600 16.009
28.0800 15.816
28.1000 16.365
28.1200 16.335
28.1400 15.613
28.1600 16.197
28.1800 15.982
28.2000 15.794
28.2200 16.826
28.2400 16.622
28.2600 16.247
28.2800 15.850
28.3000 15.936
28.3200 16.367
28.3400 16.094
28.3600 16.520
28.3800 15.879
28.4000 16.574
28.4200 16.487
28.4400 16.236
28.4600 17.140
28.4800 16.858
28.5000 16.830
28.5200 17.344
28.5400 16.723
28.5600 16.547
28.5800 16.397
28.6000 16.158
28.6200 17.101
28.6400 16.690
28.6600 17.123
28.6800 17.335
28.7000 16.158
28.7200 16.660
28.7400 16.383
28.7600 16.738
28.7800 16.835
28.8000 16.748
28.8200 16.792
28.8400 16.415
28.8600 16.344
28.8800 17.055
28.9000 17.174
28.9200 16.319
28.9400 16.507
28.9600 17.028
28.9800 17.109
29.0000 17.035
29.0200 17.300
29.0400 17.186
29.0600 17.191
29.0800 16.281
29.1000 16.273
29.1200 17.347
29.1400 16.732
29.1600 17.995
29.1800 17.507
29.2000 16.744
29.2200 16.411
29.2400 16.941
29.2600 17.540
29.2800 17.185
29.3000 16.707
29.3200 17.185
29.3400 17.162
29.3600 17.535
29.3800 17.362
29.4000 17.020
29.4200 16.917
29.4400 17.215
29.4600 16.933
29.4800 17.178
29.5000 17.519
29.5200 17.625
29.5400 17.084
29.5600 16.905
29.5800 17.376
29.6000 16.736
29.6200 16.834
29.6400 17.936
29.6600 17.788
29.6800 17.346
29.7000 17.800
29.7200 17.517
29.7400 17.110
29.7600 17.846
29.7800 18.302
29.8000 18.314
29.8200 17.704
29.8400 17.643
29.8600 17.688
29.8800 17.984
29.9000 17.875
29.9200 17.680
29.9400 18.436
29.9600 18.394
29.9800 18.170
30.0000 17.711
30.0200 17.164
30.0400 17.773
30.0600 17.650
30.0800 17.558
30.1000 18.023
30.1200 18.363
30.1400 18.493
30.1600 17.943
30.1800 18.063
30.2000 18.018
30.2200 17.937
30.2400 18.049
30.2600 18.625
30.2800 17.912
30.3000 18.489
30.3200 18.179
30.3400 18.224
30.3600 17.898
30.3800 17.496
30.4000 18.193
30.4200 18.136
30.4400 17.814
30.4600 19.097
30.4800 18.837
30.5000 19.073
30.5200 18.752
30.5400 18.674
30.5600 18.937
30.5800 18.645
30.6000 18.963
30.6200 18.405
30.6400 18.619
30.6600 19.009
30.6800 18.710
30.7000 18.910
30.7200 18.917
30.7400 18.137
30.7600 19.462
30.7800 18.617
30.8000 18.897
30.8200 19.062
30.8400 19.288
30.8600 18.940
30.8800 19.095
30.9000 19.047
30.9200 19.019
30.9400 18.899
30.9600 18.444
30.9800 18.525
31.0000 19.104
31.0200 18.962
31.0400 19.151
31.0600 19.212
31.0800 19.293
31.1000 18.986
31.1200 18.588
31.1400 18.264
31.1600 19.174
31.1800 19.185
31.2000 19.630
31.2200 19.153
31.2400 19.027
31.2600 19.097
31.2800 19.825
31.3000 19.530
31.3200 19.212
31.3400 19.012
31.3600 19.022
31.3800 19.225
31.4000 19.711
31.4200 19.166
31.4400 19.577
31.4600 19.457
31.4800 19.534
31.5000 20.111
31.5200 19.407
31.5400 19.625
31.5600 19.831
31.5800 19.777
31.6000 19.429
31.6200 19.059
31.6400 19.362
31.6600 19.505
31.6800 19.791
31.7000 18.836
31.7200 19.610
31.7400 19.880
31.7600 20.537
31.7800 19.620
31.8000 19.428
31.8200 19.413
31.8400 19.925
31.8600 19.804
31.8800 19.614
31.9000 19.518
31.9200 19.911
31.9400 20.117
31.9600 20.150
31.9800 20.066
32.0000 20.212
32.0200 20.224
32.0400 20.670
32.0600 20.551
32.0800 20.359
32.1000 19.578
32.1200 19.778
32.1400 20.394
32.1600 19.968
32.1800 20.366
32.2000 20.410
32.2200 20.554
32.2400 20.976
32.2600 20.265
32.2800 20.497
32.3000 21.747
32.3200 20.773
32.3400 20.644
32.3600 20.941
32.3800 20.718
32.4000 20.607
32.4200 19.971
32.4400 19.513
32.4600 20.264
32.4800 19.814
32.5000 20.478
32.5200 20.163
32.5400 20.632
32.5600 20.903
32.5800 20.039
32.6000 20.438
32.6200 19.881
32.6400 20.729
32.6600 20.587
32.6800 21.109
32.7000 20.590
32.7200 20.866
32.7400 20.359
32.7600 20.721
32.7800 21.370
32.8000 21.172
32.8200 20.972
32.8400 21.775
32.8600 21.031
32.8800 20.587
32.9000 21.618
32.9200 21.053
32.9400 21.135
32.9600 21.420
32.9800 21.255
33.0000 21.143
33.0200 21.172
33.0400 21.745
33.0600 21.504
33.0800 21.458
33.1000 21.293
33.1200 20.832
33.1400 20.797
33.1600 21.401
33.1800 22.108
33.2000 21.466
33.2200 22.068
33.2400 21.439
33.2600 20.240
33.2800 20.703
33.3000 21.456
33.3200 21.983
33.3400 21.792
33.3600 21.067
33.3800 21.729
33.4000 21.265
33.4200 21.776
33.4400 21.465
33.4600 21.486
33.4800 21.668
33.5000 21.665
33.5200 21.865
33.5400 21.896
33.5600 21.771
33.5800 21.826
33.6000 21.674
33.6200 22.232
33.6400 22.106
33.6600 21.326
33.6800 21.675
33.7000 22.226
33.7200 21.881
33.7400 21.509
33.7600 22.407
33.7800 21.974
33.8000 21.495
33.8200 21.789
33.8400 21.900
33.8600 21.948
33.8800 22.600
33.9000 22.101
33.9200 22.225
33.9400 22.130
33.9600 21.907
33.9800 22.708
34.0000 22.255
34.0200 22.227
34.0400 22.686
34.0600 22.771
34.0800 23.073
34.1000 22.490
34.1200 22.166
34.1400 22.084
34.1600 22.288
34.1800 22.973
34.2000 22.762
34.2200 22.977
34.2400 22.753
34.2600 22.651
34.2800 22.778
34.3000 22.565
34.3200 22.073
34.3400 22.501
34.3600 22.122
34.3800 22.529
34.4000 23.433
34.4200 23.697
34.4400 23.175
34.4600 22.328
34.4800 22.819
34.5000 22.790
34.5200 23.006
34.5400 23.290
34.5600 22.753
34.5800 23.249
34.6000 22.907
34.6200 22.912
34.6400 22.644
34.6600 22.895
34.6800 23.893
34.7000 23.535
34.7200 23.230
34.7400 23.023
34.7600 22.539
34.7800 22.295
34.8000 23.134
34.8200 24.063
34.8400 23.082
34.8600 23.025
34.8800 23.198
34.9000 23.125
34.9200 23.072
34.9400 23.727
34.9600 23.645
34.9800 23.302
35.0000 23.320
35.0200 22.685
35.0400 22.912
35.0600 23.935
35.0800 23.257
35.1000 23.092
35.1200 23.301
35.1400 23.321
35.1600 23.731
35.1800 23.289
35.2000 23.433
35.2200 23.343
35.2400 23.602
35.2600 23.398
35.2800 23.860
35.3000 23.357
35.3200 23.566
35.3400 24.177
35.3600 23.513
35.3800 23.752
35.4000 23.667
35.4200 24.079
35.4400 23.367
35.4600 23.826
35.4800 24.693
35.5000 23.739
35.5200 23.777
35.5400 24.632
35.5600 24.526
35.5800 23.578
35.6000 24.035
35.6200 24.373
35.6400 24.386
35.6600 23.875
35.6800 23.987
35.7000 23.817
35.7200 23.220
35.7400 23.597
35.7600 24.241
35.7800 24.773
35.8000 23.489
35.8200 24.956
35.8400 24.931
35.8600 24.618
35.8800 24.626
35.9000 24.520
35.9200 24.558
35.9400 24.675
35.9600 24.389
35.9800 24.199
36.0000 24.652
36.0200 24.670
36.0400 25.061
36.0600 24.478
36.0800 24.189
36.1000 24.137
36.1200 24.509
36.1400 24.882
36.1600 24.596
36.1800 25.076
36.2000 25.127
36.2200 25.009
36.2400 24.528
36.2600 24.644
36.2800 25.037
36.3000 25.029
36.3200 24.638
36.3400 24.886
36.3600 24.609
36.3800 24.547
36.4000 24.901
36.4200 24.911
36.4400 24.814
36.4600 25.453
36.4800 25.393
36.5000 24.734
36.5200 25.439
36.5400 25.023
36.5600 25.413
36.5800 26.032
36.6000 25.556
36.6200 25.057
36.6400 25.147
36.6600 25.742
36.6800 25.830
36.7000 25.567
36.7200 25.171
36.7400 26.355
36.7600 25.705
36.7800 26.369
36.8000 26.633
36.8200 26.120
36.8400 25.918
36.8600 26.248
36.8800 26.050
36.9000 26.030
36.9200 25.959
36.9400 26.013
36.9600 26.197
36.9800 26.188
37.0000 25.815
37.0200 26.524
37.0400 26.499
37.0600 25.904
37.0800 26.285
37.1000 26.145
37.1200 26.402
37.1400 25.946
37.1600 25.465
37.1800 26.098
37.2000 26.682
37.2200 26.976
37.2400 27.568
37.2600 27.112
37.2800 26.783
37.3000 26.994
37.3200 27.250
37.3400 26.671
37.3600 27.107
37.3800 26.922
37.4000 28.185
37.4200 26.810
37.4400 26.692
37.4600 27.518
37.4800 27.337
37.5000 27.122
37.5200 27.821
37.5400 26.927
37.5600 27.407
37.5800 27.127
37.6000 27.179
37.6200 27.359
37.6400 27.807
37.6600 27.424
37.6800 27.460
37.7000 27.687
37.7200 27.904
37.7400 27.855
37.7600 28.224
37.7800 27.203
37.8000 26.638
37.8200 27.509
37.8400 26.920
37.8600 27.686
37.8800 27.521
37.9000 28.393
37.9200 28.249
37.9400 27.725
37.9600 28.488
37.9800 27.982
38.0000 27.025
38.0200 28.398
38.0400 27.758
38.0600 27.928
38.0800 27.769
38.1000 27.857
38.1200 28.752
38.1400 28.770
38.1600 28.548
38.1800 28.704
38.2000 28.913
38.2200 28.792
38.2400 29.038
38.2600 28.576
38.2800 29.072
38.3000 28.458
38.3200 27.992
38.3400 28.440
38.3600 28.651
38.3800 28.443
38.4000 28.975
38.4200 28.945
38.4400 28.230
38.4600 28.644
38.4800 28.603
38.5000 28.910
38.5200 28.644
38.5400 28.686
38.5600 28.750
38.5800 29.061
38.6000 29.468
38.6200 28.931
38.6400 29.410
38.6600 29.258
38.6800 28.402
38.7000 28.691
38.7200 28.726
38.7400 29.305
38.7600 29.002
38.7800 28.507
38.8000 28.803
38.8200 28.882
38.8400 29.514
38.8600 29.414
38.8800 29.286
38.9000 30.003
38.9200 30.163
38.9400 29.620
38.9600 29.745
38.9800 29.006
39.0000 29.126
39.0200 30.294
39.0400 29.060
39.0600 29.374
39.0800 29.138
39.1000 29.467
39.1200 29.549
39.1400 29.477
39.1600 29.390
39.1800 29.703
39.2000 29.135
39.2200 29.038
39.2400 30.444
39.2600 30.485
39.2800 30.119
39.3000 30.256
39.3200 29.842
39.3400 29.859
39.3600 29.468
39.3800 29.255
39.4000 29.846
39.4200 29.988
39.4400 30.394
39.4600 29.874
39.4800 30.455
39.5000 30.638
39.5200 29.708
39.5400 30.312
39.5600 30.731
39.5800 29.972
39.6000 30.875
39.6200 30.252
39.6400 30.767
39.6600 30.622
39.6800 29.940
39.7000 29.873
39.7200 29.694
39.7400 30.823
39.7600 30.438
39.7800 30.321
39.8000 30.340
39.8200 30.373
39.8400 29.804
39.8600 30.417
39.8800 30.652
39.9000 30.441
39.9200 30.693
39.9400 31.241
39.9600 30.646
39.9800 31.061
40.0000 30.246
40.0200 31.050
40.0400 31.194
40.0600 31.035
40.0800 31.808
40.1000 31.414
40.1200 30.618
40.1400 30.281
40.1600 31.561
40.1800 30.784
40.2000 31.051
40.2200 31.131
40.2400 30.361
40.2600 31.475
40.2800 29.848
40.3000 30.824
40.3200 30.758
40.3400 31.224
40.3600 31.298
40.3800 30.724
40.4000 31.592
40.4200 31.677
40.4400 30.703
40.4600 31.287
40.4800 31.930
40.5000 30.905
40.5200 30.820
40.5400 32.081
40.5600 31.228
40.5800 31.188
40.6000 31.930
40.6200 31.239
40.6400 30.931
40.6600 31.068
40.6800 32.420
40.7000 31.249
40.7200 31.409
40.7400 31.775
40.7600 31.302
40.7800 31.334
40.8000 31.063
40.8200 31.261
40.8400 31.718
40.8600 31.946
40.8800 30.913
40.9000 31.151
40.9200 32.143
40.9400 31.767
40.9600 31.734
40.9800 32.015
41.0000 31.620
41.0200 31.803
41.0400 32.160
41.0600 31.772
41.0800 31.175
41.1000 31.492
41.1200 31.268
41.1400 31.828
41.1600 32.705
41.1800 31.758
41.2000 31.580
41.2200 31.887
41.2400 32.269
41.2600 31.986
41.2800 31.317
41.3000 31.549
41.3200 32.457
41.3400 31.923
41.3600 32.521
41.3800 31.774
41.4000 31.791
41.4200 32.230
41.4400 31.755
41.4600 32.278
41.4800 32.146
41.5000 32.527
41.5200 31.752
41.5400 32.892
41.5600 32.578
41.5800 31.632
41.6000 32.989
41.6200 32.075
41.6400 31.395
41.6600 32.070
41.6800 32.057
41.7000 32.900
41.7200 32.776
41.7400 32.748
41.7600 32.529
41.7800 31.643
41.8000 32.956
41.8200 33.015
41.8400 33.029
41.8600 32.616
41.8800 31.753
41.9000 32.239
41.9200 32.664
41.9400 32.240
41.9600 32.833
41.9800 33.253
42.0000 33.717
42.0200 32.193
42.0400 32.705
42.0600 32.347
42.0800 31.840
42.1000 32.452
42.1200 32.234
42.1400 33.468
42.1600 33.727
42.1800 32.538
42.2000 33.473
42.2200 33.817
42.2400 32.808
42.2600 33.626
42.2800 33.494
42.3000 32.826
42.3200 33.153
42.3400 33.024
42.3600 32.763
42.3800 33.209
42.4000 32.566
42.4200 32.776
42.4400 33.125
42.4600 33.289
42.4800 33.158
42.5000 33.313
42.5200 32.223
42.5400 33.422
42.5600 32.782
42.5800 32.880
42.6000 33.043
42.6200 33.647
42.6400 32.450
42.6600 33.211
42.6800 32.699
42.7000 34.658
42.7200 33.496
42.7400 33.534
42.7600 33.391
42.7800 32.921
42.8000 34.398
42.8200 33.452
42.8400 32.980
42.8600 33.777
42.8800 33.723
42.9000 34.164
42.9200 33.584
42.9400 33.381
42.9600 33.442
42.9800 33.549
43.0000 33.774
43.0200 33.553
43.0400 33.412
43.0600 32.791
43.0800 33.627
43.1000 33.889
43.1200 33.955
43.1400 33.430
43.1600 33.619
43.1800 33.719
43.2000 33.655
43.2200 34.038
43.2400 33.246
43.2600 33.578
43.2800 33.618
43.3000 32.654
43.3200 34.223
43.3400 33.019
43.3600 34.576
43.3800 33.677
43.4000 33.659
43.4200 33.301
43.4400 33.672
43.4600 33.777
43.4800 33.715
43.5000 33.795
43.5200 33.525
43.5400 34.249
43.5600 33.951
43.5800 33.441
43.6000 33.535
43.6200 35.081
43.6400 34.595
43.6600 33.583
43.6800 34.264
43.7000 34.466
43.7200 34.655
43.7400 34.505
43.7600 34.634
43.7800 34.187
43.8000 33.749
43.8200 34.591
43.8400 34.788
43.8600 34.335
43.8800 34.026
43.9000 34.335
43.9200 33.955
43.9400 34.240
43.9600 34.122
43.9800 34.576
44.0000 35.044
44.0200 35.172
44.0400 35.381
44.0600 35.544
44.0800 34.879
44.1000 35.768
44.1200 36.293
44.1400 36.191
44.1600 36.792
44.1800 36.582
44.2000 37.145
44.2200 37.775
44.2400 38.608
44.2600 38.837
44.2800 38.703
44.3000 39.619
44.3200 40.491
44.3400 42.733
44.3600 44.193
44.3800 45.659
44.4000 48.407
44.4200 50.879
44.4400 53.044
44.4600 56.550
44.4800 60.085
44.5000 63.655
44.5200 68.523
44.5400 70.229
44.5600 70.190
44.5800 69.060
44.6000 67.958
44.6200 66.522
44.6400 63.306
44.6600 60.657
44.6800 58.102
44.7000 55.520
44.7200 52.578
44.7400 49.348
44.7600 46.547
44.7800 44.242
44.8000 42.037
44.8200 41.471
44.8400 41.370
44.8600 39.113
44.8800 38.812
44.9000 38.839
44.9200 37.784
44.9400 36.892
44.9600 36.506
44.9800 36.634
45.0000 36.025
45.0200 35.691
45.0400 36.475
45.0600 36.239
45.0800 35.690
45.1000 35.847
45.1200 36.183
45.1400 34.968
45.1600 35.814
45.1800 35.811
45.2000 36.224
45.2200 35.981
45.2400 36.852
45.2600 36.211
45.2800 36.329
45.3000 35.249
45.3200 35.188
45.3400 35.132
45.3600 35.712
45.3800 36.173
45.4000 35.109
45.4200 34.977
45.4400 35.773
45.4600 35.429
45.4800 35.112
45.5000 36.225
45.5200 35.816
45.5400 35.931
45.5600 35.062
45.5800 34.005
45.6000 34.383
45.6200 36.323
45.6400 35.009
45.6600 34.955
45.6800 33.800
45.7000 34.617
45.7200 35.398
45.7400 35.415
45.7600 34.286
45.7800 35.188
45.8000 36.054
45.8200 35.108
45.8400 35.040
45.8600 35.787
45.8800 35.566
45.9000 35.531
45.9200 34.886
45.9400 35.382
45.9600 35.306
45.9800 34.756
46.0000 36.219
46.0200 35.771
46.0400 34.819
46.0600 35.805
46.0800 36.585
46.1000 35.678
46.1200 35.074
46.1400 35.398
46.1600 36.272
46.1800 35.448
46.2000 36.453
46.2200 35.823
46.2400 35.204
46.2600 36.024
46.2800 35.344
46.3000 36.008
46.3200 36.146
46.3400 35.966
46.3600 35.328
46.3800 34.665
46.4000 35.818
46.4200 35.085
46.4400 36.044
46.4600 35.925
46.4800 35.610
46.5000 35.598
46.5200 35.194
46.5400 35.618
46.5600 35.529
46.5800 36.597
46.6000 35.616
46.6200 35.159
46.6400 34.974
46.6600 36.131
46.6800 35.454
46.7000 36.384
46.7200 36.429
46.7400 35.386
46.7600 35.507
46.7800 36.144
46.8000 35.727
46.8200 35.311
46.8400 36.279
46.8600 36.043
46.8800 36.231
46.9000 35.845
46.9200 35.994
46.9400 35.312
46.9600 35.376
46.9800 35.567
47.0000 35.643
47.0200 35.366
47.0400 35.719
47.0600 36.008
47.0800 35.821
47.1000 36.139
47.1200 36.699
47.1400 36.293
47.1600 35.558
47.1800 35.951
47.2000 36.249
47.2200 36.461
47.2400 35.692
47.2600 36.198
47.2800 36.347
47.3000 37.180
47.3200 36.705
47.3400 35.591
47.3600 35.822
47.3800 35.612
47.4000 36.075
47.4200 36.964
47.4400 36.599
47.4600 37.142
47.4800 36.915
47.5000 37.430
47.5200 36.485
47.5400 35.908
47.5600 36.660
47.5800 36.256
47.6000 36.230
47.6200 35.661
47.6400 37.038
47.6600 37.300
47.6800 36.385
47.7000 36.116
47.7200 36.265
47.7400 36.455
47.7600 36.356
47.7800 36.284
47.8000 35.738
47.8200 36.585
47.8400 35.911
47.8600 36.367
47.8800 37.578
47.9000 36.865
47.9200 37.318
47.9400 37.190
47.9600 37.537
47.9800 36.276
48.0000 36.167
48.0200 37.618
48.0400 37.626
48.0600 37.445
48.0800 36.971
48.1000 36.944
48.1200 36.619
48.1400 37.140
48.1600 36.017
48.1800 36.998
48.2000 38.138
48.2200 37.457
48.2400 36.445
48.2600 36.788
48.2800 37.062
48.3000 37.528
48.3200 37.011
48.3400 37.020
48.3600 36.881
48.3800 37.372
48.4000 36.917
48.4200 37.226
48.4400 37.072
48.4600 37.156
48.4800 37.032
48.5000 36.805
48.5200 36.974
48.5400 37.074
48.5600 36.893
48.5800 36.378
48.6000 37.271
48.6200 38.096
48.6400 37.187
48.6600 37.148
48.6800 36.852
48.7000 37.309
48.7200 37.300
48.7400 37.371
48.7600 36.997
48.7800 36.543
48.8000 37.324
48.8200 37.880
48.8400 36.883
48.8600 36.884
48.8800 37.573
48.9000 37.639
48.9200 38.034
48.9400 38.357
48.9600 37.226
48.9800 37.463
49.0000 37.919
49.0200 38.314
49.0400 37.975
49.0600 37.599
49.0800 37.636
49.1000 37.580
49.1200 37.061
49.1400 37.141
49.1600 37.736
49.1800 37.695
49.2000 37.535
49.2200 38.036
49.2400 37.552
49.2600 36.849
49.2800 37.937
49.3000 37.051
49.3200 37.570
49.3400 38.057
49.3600 38.118
49.3800 37.392
49.4000 37.406
49.4200 37.532
49.4400 37.334
49.4600 38.572
49.4800 37.490
49.5000 38.141
49.5200 38.434
49.5400 38.732
49.5600 38.218
49.5800 37.932
49.6000 38.627
49.6200 39.610
49.6400 38.510
49.6600 38.094
49.6800 37.093
49.7000 37.939
49.7200 38.019
49.7400 37.880
49.7600 38.230
49.7800 37.878
49.8000 38.526
49.8200 38.589
49.8400 37.533
49.8600 38.184
49.8800 37.607
49.9000 38.908
49.9200 39.256
49.9400 38.670
49.9600 38.043
49.9800 38.646
50.0000 38.765
50.0200 39.043
50.0400 38.813
50.0600 39.122
50.0800 39.216
50.1000 38.634
50.1200 39.164
50.1400 40.176
50.1600 39.228
50.1800 39.538
50.2000 39.050
50.2200 39.149
50.2400 38.663
50.2600 38.985
50.2800 38.285
50.3000 38.429
50.3200 39.324
50.3400 39.036
50.3600 39.411
50.3800 38.657
50.4000 38.784
50.4200 38.903
50.4400 37.493
50.4600 38.888
50.4800 38.877
50.5000 38.667
50.5200 38.263
50.5400 38.735
50.5600 38.197
50.5800 38.997
50.6000 39.513
50.6200 39.077
50.6400 39.341
50.6600 39.850
50.6800 39.393
50.7000 39.225
50.7200 39.579
50.7400 39.210
50.7600 39.809
50.7800 38.886
50.8000 39.888
50.8200 39.586
50.8400 39.583
50.8600 39.566
50.8800 39.176
50.9000 39.737
50.9200 39.794
50.9400 39.869
50.9600 39.173
50.9800 37.830
51.0000 39.786
51.0200 39.926
51.0400 39.981
51.0600 39.244
51.0800 40.519
51.1000 39.896
51.1200 39.421
51.1400 39.204
51.1600 39.702
51.1800 40.627
51.2000 39.056
51.2200 39.685
51.2400 40.988
51.2600 40.343
51.2800 40.341
51.3000 41.016
51.3200 40.458
51.3400 40.704
51.3600 40.775
51.3800 40.420
51.4000 39.760
51.4200 39.166
51.4400 40.140
51.4600 40.415
51.4800 40.757
51.5000 39.890
51.5200 39.701
51.5400 40.310
51.5600 40.110
51.5800 40.058
51.6000 40.499
51.6200 40.177
51.6400 40.518
51.6600 40.543
51.6800 40.359
51.7000 40.647
51.7200 40.077
51.7400 40.818
51.7600 40.409
51.7800 40.048
51.8000 41.069
51.8200 40.974
51.8400 40.480
51.8600 40.582
51.8800 40.522
51.9000 40.759
51.9200 40.587
51.9400 41.271
51.9600 40.219
51.9800 39.701
52.0000 40.627
52.0200 40.681
52.0400 41.053
52.0600 41.575
52.0800 40.933
52.1000 41.024
52.1200 40.826
52.1400 41.221
52.1600 40.770
52.1800 41.245
52.2000 40.627
52.2200 41.707
52.2400 40.342
52.2600 40.623
52.2800 41.015
52.3000 40.786
52.3200 41.327
52.3400 41.093
52.3600 40.602
52.3800 40.337
52.4000 40.627
52.4200 41.305
52.4400 40.921
52.4600 40.898
52.4800 41.287
52.5000 41.744
52.5200 41.658
52.5400 40.527
52.5600 40.799
52.5800 41.373
52.6000 40.893
52.6200 41.491
52.6400 41.591
52.6600 40.917
52.6800 41.729
52.7000 41.497
52.7200 41.105
52.7400 41.546
52.7600 40.585
52.7800 41.186
52.8000 40.857
52.8200 40.421
52.8400 41.296
52.8600 41.349
52.8800 41.503
52.9000 40.956
52.9200 40.261
52.9400 41.263
52.9600 41.239
52.9800 41.441
53.0000 42.400
53.0200 41.102
53.0400 40.716
53.0600 41.111
53.0800 42.098
53.1000 42.565
53.1200 41.183
53.1400 41.218
53.1600 40.571
53.1800 40.381
53.2000 41.280
53.2200 40.857
53.2400 40.793
53.2600 41.750
53.2800 41.300
53.3000 42.078
53.3200 41.177
53.3400 41.051
53.3600 42.642
53.3800 41.596
53.4000 41.583
53.4200 40.170
53.4400 40.621
53.4600 41.092
53.4800 41.080
53.5000 40.619
53.5200 40.767
53.5400 41.507
53.5600 41.901
53.5800 41.343
53.6000 40.742
53.6200 41.729
53.6400 41.127
53.6600 40.930
53.6800 41.746
53.7000 41.683
53.7200 41.232
53.7400 41.264
53.7600 40.941
53.7800 41.004
53.8000 42.975
53.8200 41.625
53.8400 41.996
53.8600 42.159
53.8800 42.453
53.9000 40.869
53.9200 40.734
53.9400 41.454
53.9600 41.893
53.9800 41.722
54.0000 41.425
54.0200 41.690
54.0400 41.775
54.0600 42.305
54.0800 41.062
54.1000 42.348
54.1200 42.432
54.1400 41.746
54.1600 42.350
54.1800 41.639
54.2000 41.311
54.2200 42.183
54.2400 41.057
54.2600 41.925
54.2800 41.433
54.3000 41.824
54.3200 42.089
54.3400 41.342
54.3600 41.380
54.3800 41.723
54.4000 42.673
54.4200 41.871
54.4400 41.842
54.4600 42.269
54.4800 42.439
54.5000 42.475
54.5200 42.679
54.5400 42.400
54.5600 42.661
54.5800 41.531
54.6000 42.018
54.6200 41.924
54.6400 42.298
54.6600 42.418
54.6800 42.517
54.7000 41.685
54.7200 41.659
54.7400 41.974
54.7600 42.665
54.7800 42.680
54.8000 41.821
54.8200 42.770
54.8400 42.478
54.8600 42.593
54.8800 42.178
54.9000 42.755
54.9200 42.130
54.9400 42.261
54.9600 42.845
54.9800 42.040
55.0000 42.937
55.0200 42.407
55.0400 42.531
55.0600 42.946
55.0800 43.222
55.1000 42.794
55.1200 42.318
55.1400 41.444
55.1600 41.637
55.1800 43.255
55.2000 43.206
55.2200 43.009
55.2400 42.478
55.2600 43.706
55.2800 42.166
55.3000 42.483
55.3200 42.816
55.3400 42.654
55.3600 43.018
55.3800 42.213
55.4000 43.424
55.4200 42.749
55.4400 42.552
55.4600 43.430
55.4800 43.469
55.5000 43.274
55.5200 43.556
55.5400 42.394
55.5600 43.428
55.5800 42.792
55.6000 42.814
55.6200 42.761
55.6400 42.819
55.6600 43.034
55.6800 42.792
55.7000 43.160
55.7200 43.599
55.7400 43.180
55.7600 43.305
55.7800 43.650
55.8000 42.906
55.8200 43.214
55.8400 43.481
55.8600 43.177
55.8800 43.318
55.9000 42.984
55.9200 43.512
55.9400 43.754
55.9600 42.694
55.9800 44.029
56.0000 44.802
56.0200 44.069
56.0400 44.051
56.0600 43.783
56.0800 43.409
56.1000 43.030
56.1200 42.937
56.1400 42.727
56.1600 43.775
56.1800 43.337
56.2000 43.072
56.2200 43.800
56.2400 43.286
56.2600 43.557
56.2800 43.439
56.3000 43.070
56.3200 42.696
56.3400 42.580
56.3600 43.633
56.3800 43.719
56.4000 43.124
56.4200 43.482
56.4400 43.220
56.4600 43.196
56.4800 43.081
56.5000 43.442
56.5200 42.748
56.5400 43.577
56.5600 43.970
56.5800 43.371
56.6000 43.924
56.6200 44.490
56.6400 44.664
56.6600 45.119
56.6800 43.799
56.7000 43.964
56.7200 43.847
56.7400 44.114
56.7600 44.829
56.7800 43.589
56.8000 44.088
56.8200 43.885
56.8400 43.391
56.8600 43.266
56.8800 44.299
56.9000 44.714
56.9200 44.216
56.9400 44.562
56.9600 44.097
56.9800 44.925
57.0000 44.240
57.0200 45.066
57.0400 43.871
57.0600 45.539
57.0800 44.047
57.1000 45.211
57.1200 45.035
57.1400 45.795
57.1600 44.503
57.1800 43.663
57.2000 45.101
57.2200 44.449
57.2400 45.092
57.2600 44.817
57.2800 44.655
57.3000 45.499
57.3200 44.368
57.3400 44.925
57.3600 44.026
57.3800 44.563
57.4000 44.486
57.4200 44.787
57.4400 44.305
57.4600 44.990
57.4800 45.224
57.5000 44.677
57.5200 45.037
57.5400 44.834
57.5600 45.181
57.5800 45.544
57.6000 45.371
57.6200 45.971
57.6400 44.903
57.6600 45.213
57.6800 44.868
57.7000 44.721
57.7200 46.055
57.7400 45.619
57.7600 45.696
57.7800 45.217
57.8000 46.370
57.8200 45.631
57.8400 46.909
57.8600 46.255
57.8800 46.735
57.9000 46.348
57.9200 46.154
57.9400 46.497
57.9600 46.956
57.9800 47.038
58.0000 47.393
58.0200 46.417
58.0400 47.500
58.0600 47.846
58.0800 47.504
58.1000 47.208
58.1200 48.146
58.1400 47.318
58.1600 48.277
58.1800 48.413
58.2000 48.884
58.2200 48.962
58.2400 49.933
58.2600 50.070
58.2800 51.191
58.3000 51.728
58.3200 51.043
58.3400 50.974
58.3600 51.183
58.3800 52.094
58.4000 52.594
58.4200 52.534
58.4400 52.925
58.4600 52.911
58.4800 52.537
58.5000 53.549
58.5200 51.603
58.5400 53.096
58.5600 54.276
58.5800 54.127
58.6000 53.943
58.6200 53.879
58.6400 54.492
58.6600 53.971
58.6800 54.458
58.7000 54.497
58.7200 54.341
58.7400 53.828
58.7600 53.633
58.7800 53.650
58.8000 53.987
58.8200 53.918
58.8400 53.757
58.8600 53.340
58.8800 53.726
58.9000 53.190
58.9200 53.152
58.9400 52.649
58.9600 50.612
58.9800 51.116
59.0000 50.758
59.0200 52.014
59.0400 50.851
59.0600 50.651
59.0800 50.522
59.1000 49.770
59.1200 49.424
59.1400 49.167
59.1600 47.800
59.1800 48.802
59.2000 47.080
59.2200 47.223
59.2400 47.775
59.2600 48.139
59.2800 48.101
59.3000 47.217
59.3200 47.996
59.3400 46.923
59.3600 47.169
59.3800 46.832
59.4000 46.413
59.4200 46.775
59.4400 47.507
59.4600 46.633
59.4800 47.043
59.5000 46.637
59.5200 46.493
59.5400 47.612
59.5600 46.926
59.5800 47.526
59.6000 47.054
59.6200 46.891
59.6400 46.942
59.6600 47.716
59.6800 45.635
59.7000 46.201
59.7200 46.323
59.7400 46.858
59.7600 46.838
59.7800 46.087
59.8000 45.280
59.8200 47.496
59.8400 46.293
59.8600 46.685
59.8800 46.420
59.9000 46.956
59.9200 46.443
59.9400 46.760
59.9600 46.373
59.9800 47.501
60.0000 47.478
60.0200 45.963
60.0400 46.057
60.0600 46.631
60.0800 46.714
60.1000 46.534
60.1200 46.830
60.1400 46.334
60.1600 47.055
60.1800 47.324
60.2000 46.492
60.2200 46.887
60.2400 47.535
60.2600 47.108
60.2800 46.502
60.3000 46.601
60.3200 46.034
60.3400 46.029
60.3600 46.524
60.3800 46.866
60.4000 47.398
60.4200 46.335
60.4400 48.062
60.4600 47.123
60.4800 47.723
60.5000 46.589
60.5200 47.326
60.5400 46.981
60.5600 47.262
60.5800 46.853
60.6000 47.212
60.6200 47.353
60.6400 47.671
60.6600 47.642
60.6800 47.012
60.7000 47.091
60.7200 47.333
60.7400 47.508
60.7600 46.894
60.7800 46.606
60.8000 47.254
60.8200 48.169
60.8400 48.130
60.8600 47.664
60.8800 46.426
60.9000 47.944
60.9200 47.515
60.9400 47.251
60.9600 47.030
60.9800 47.078
61.0000 47.553
61.0200 47.670
61.0400 46.324
61.0600 46.695
61.0800 47.062
61.1000 48.169
61.1200 47.840
61.1400 46.716
61.1600 47.057
61.1800 46.969
61.2000 47.128
61.2200 47.480
61.2400 47.578
61.2600 46.846
61.2800 48.382
61.3000 48.001
61.3200 47.378
61.3400 47.416
61.3600 47.298
61.3800 46.575
61.4000 47.380
61.4200 47.068
61.4400 47.876
61.4600 47.637
61.4800 46.955
61.5000 47.372
61.5200 47.787
61.5400 47.549
61.5600 48.435
61.5800 46.664
61.6000 47.131
61.6200 47.228
61.6400 47.822
61.6600 48.342
61.6800 48.135
61.7000 47.555
61.7200 48.355
61.7400 48.230
61.7600 47.956
61.7800 46.924
61.8000 47.624
61.8200 47.711
61.8400 47.746
61.8600 48.562
61.8800 47.394
61.9000 46.638
61.9200 47.085
61.9400 47.333
61.9600 48.489
61.9800 48.281
62.0000 48.863
62.0200 47.265
62.0400 47.939
62.0600 47.492
62.0800 48.247
62.1000 48.858
62.1200 49.224
62.1400 47.991
62.1600 48.652
62.1800 48.386
62.2000 47.890
62.2200 47.893
62.2400 47.154
62.2600 48.632
62.2800 47.878
62.3000 47.640
62.3200 47.627
62.3400 47.315
62.3600 48.359
62.3800 47.545
62.4000 47.494
62.4200 48.101
62.4400 48.773
62.4600 47.675
62.4800 47.456
62.5000 47.293
62.5200 48.519
62.5400 49.049
62.5600 47.631
62.5800 47.310
62.6000 48.907
62.6200 48.777
62.6400 48.371
62.6600 47.624
62.6800 48.814
62.7000 49.061
62.7200 47.582
62.7400 49.031
62.7600 49.481
62.7800 49.102
62.8000 48.001
62.8200 48.344
62.8400 48.316
62.8600 48.876
62.8800 48.522
62.9000 47.908
62.9200 48.483
62.9400 49.038
62.9600 47.823
62.9800 48.841
63.0000 48.439
63.0200 49.596
63.0400 48.484
63.0600 49.277
63.0800 48.486
63.1000 49.334
63.1200 48.807
63.1400 49.677
63.1600 48.466
63.1800 48.547
63.2000 49.481
63.2200 48.022
63.2400 47.741
63.2600 48.001
63.2800 49.040
63.3000 49.045
63.3200 49.592
63.3400 48.734
63.3600 48.773
63.3800 48.507
63.4000 48.900
63.4200 48.749
63.4400 48.474
63.4600 48.900
63.4800 49.277
63.5000 48.654
63.5200 48.779
63.5400 49.339
63.5600 47.754
63.5800 48.395
63.6000 49.246
63.6200 49.122
63.6400 48.642
63.6600 49.761
63.6800 49.840
63.7000 49.419
63.7200 48.852
63.7400 49.440
63.7600 49.163
63.7800 49.331
63.8000 50.082
63.8200 48.657
63.8400 48.353
63.8600 49.908
63.8800 49.292
63.9000 49.010
63.9200 50.308
63.9400 50.739
63.9600 48.896
63.9800 48.893
64.0000 48.821
64.0200 49.124
64.0400 49.511
64.0600 49.579
64.0800 49.830
64.1000 49.880
64.1200 50.373
64.1400 50.481
64.1600 50.464
64.1800 50.485
64.2000 50.458
64.2200 50.511
64.2400 51.115
64.2600 51.313
64.2800 50.531
64.3000 49.840
64.3200 50.723
64.3400 51.338
64.3600 50.836
64.3800 50.404
64.4000 50.940
64.4200 50.535
64.4400 51.966
64.4600 51.614
64.4800 53.031
64.5000 52.676
64.5200 52.654
64.5400 52.868
64.5600 53.270
64.5800 54.001
64.6000 53.848
64.6200 54.373
64.6400 55.080
64.6600 54.620
64.6800 55.938
64.7000 55.703
64.7200 57.244
64.7400 57.770
64.7600 58.277
64.7800 57.639
64.8000 57.525
64.8200 58.996
64.8400 57.883
64.8600 58.779
64.8800 58.872
64.9000 58.724
64.9200 57.584
64.9400 57.308
64.9600 56.186
64.9800 55.809
65.0000 55.029
65.0200 55.654
65.0400 54.861
65.0600 55.465
65.0800 54.752
65.1000 54.216
65.1200 53.777
65.1400 52.827
65.1600 52.121
65.1800 53.554
65.2000 52.965
65.2200 52.107
65.2400 51.996
65.2600 52.190
65.2800 50.758
65.3000 51.943
65.3200 51.033
65.3400 52.725
65.3600 51.378
65.3800 51.338
65.4000 50.548
65.4200 51.491
65.4400 49.950
65.4600 50.446
65.4800 51.110
65.5000 51.621
65.5200 51.195
65.5400 50.768
65.5600 50.844
65.5800 49.892
65.6000 50.481
65.6200 50.757
65.6400 50.505
65.6600 50.464
65.6800 51.364
65.7000 51.189
65.7200 50.144
65.7400 50.447
65.7600 51.028
65.7800 51.181
65.8000 50.490
65.8200 51.320
65.8400 51.210
65.8600 50.814
65.8800 51.002
65.9000 50.269
65.9200 50.931
65.9400 50.683
65.9600 50.993
65.9800 49.784
66.0000 50.349
66.0200 50.233
66.0400 51.120
66.0600 51.068
66.0800 50.648
66.1000 52.641
66.1200 51.790
66.1400 51.709
66.1600 51.308
66.1800 50.377
66.2000 50.241
66.2200 50.206
66.2400 50.576
66.2600 51.566
66.2800 50.868
66.3000 50.914
66.3200 50.917
66.3400 50.160
66.3600 49.749
66.3800 51.119
66.4000 50.678
66.4200 51.083
66.4400 51.351
66.4600 52.019
66.4800 51.025
66.5000 51.097
66.5200 50.776
66.5400 51.981
66.5600 50.895
66.5800 50.106
66.6000 50.849
66.6200 51.321
66.6400 51.161
66.6600 50.089
66.6800 50.876
66.7000 50.260
66.7200 51.042
66.7400 50.166
66.7600 50.208
66.7800 51.618
66.8000 52.231
66.8200 52.646
66.8400 52.346
66.8600 50.699
66.8800 50.943
66.9000 52.039
66.9200 51.377
66.9400 51.558
66.9600 52.257
66.9800 52.144
67.0000 51.896
67.0200 51.599
67.0400 51.450
67.0600 51.709
67.0800 52.177
67.1000 51.611
67.1200 51.517
67.1400 53.009
67.1600 52.230
67.1800 51.371
67.2000 51.791
67.2200 53.121
67.2400 53.187
67.2600 51.131
67.2800 52.301
67.3000 53.401
67.3200 51.277
67.3400 52.614
67.3600 53.045
67.3800 53.091
67.4000 52.097
67.4200 52.278
67.4400 53.505
67.4600 53.916
67.4800 54.047
67.5000 53.268
67.5200 53.175
67.5400 52.649
67.5600 52.881
67.5800 53.925
67.6000 53.401
67.6200 53.388
67.6400 52.644
67.6600 53.199
67.6800 52.490
67.7000 52.602
67.7200 53.631
67.7400 54.120
67.7600 52.799
67.7800 52.330
67.8000 51.999
67.8200 53.493
67.8400 52.854
67.8600 52.704
67.8800 53.497
67.9000 52.317
67.9200 52.842
67.9400 52.798
67.9600 51.805
67.9800 52.488
68.0000 52.624
68.0200 52.573
68.0400 52.669
68.0600 52.701
68.0800 51.089
68.1000 51.454
68.1200 51.318
68.1400 51.744
68.1600 51.960
68.1800 52.551
68.2000 52.594
68.2200 51.851
68.2400 52.358
68.2600 52.644
68.2800 52.714
68.3000 51.378
68.3200 52.325
68.3400 51.738
68.3600 52.206
68.3800 51.542
68.4000 51.441
68.4200 52.491
68.4400 52.292
68.4600 52.262
68.4800 50.958
68.5000 52.303
68.5200 51.571
68.5400 51.397
68.5600 51.247
68.5800 51.779
68.6000 52.547
68.6200 52.405
68.6400 51.968
68.6600 51.692
68.6800 52.241
68.7000 52.540
68.7200 52.164
68.7400 53.216
68.7600 52.180
68.7800 51.313
68.8000 52.184
68.8200 51.727
68.8400 52.503
68.8600 53.148
68.8800 51.985
68.9000 51.931
68.9200 53.028
68.9400 52.937
68.9600 53.296
68.9800 53.805
69.0000 52.711
69.0200 52.557
69.0400 52.305
69.0600 52.574
69.0800 52.523
69.1000 52.160
69.1200 51.727
69.1400 51.657
69.1600 52.457
69.1800 52.647
69.2000 52.972
69.2200 52.803
69.2400 53.542
69.2600 52.624
69.2800 53.109
69.3000 53.436
69.3200 52.372
69.3400 52.450
69.3600 53.405
69.3800 52.353
69.4000 51.175
69.4200 53.079
69.4400 52.581
69.4600 53.430
69.4800 53.952
69.5000 52.509
69.5200 52.921
69.5400 51.552
69.5600 53.038
69.5800 53.026
69.6000 52.470
69.6200 52.643
69.6400 51.935
69.6600 52.988
69.6800 53.483
69.7000 53.237
69.7200 53.747
69.7400 53.537
69.7600 52.583
69.7800 52.674
69.8000 52.700
69.8200 52.869
69.8400 52.272
69.8600 53.689
69.8800 51.929
69.9000 52.950
69.9200 53.913
69.9400 53.031
69.9600 53.132
69.9800 52.595
70.0000 52.301
70.0200 53.457
70.0400 53.468
70.0600 53.615
70.0800 52.768
70.1000 53.940
70.1200 53.002
70.1400 53.395
70.1600 54.877
70.1800 52.988
70.2000 53.629
70.2200 53.044
70.2400 53.710
70.2600 54.241
70.2800 52.706
70.3000 53.661
70.3200 53.128
70.3400 53.482
70.3600 53.895
70.3800 53.405
70.4000 53.074
70.4200 53.320
70.4400 52.588
70.4600 52.972
70.4800 53.041
70.5000 54.535
70.5200 54.304
70.5400 53.813
70.5600 54.165
70.5800 54.669
70.6000 53.947
70.6200 54.229
70.6400 53.349
70.6600 54.869
70.6800 53.435
70.7000 53.457
70.7200 54.111
70.7400 54.206
70.7600 53.664
70.7800 53.810
70.8000 53.776
70.8200 54.038
70.8400 53.126
70.8600 53.631
70.8800 53.082
70.9000 52.935
70.9200 54.208
70.9400 53.786
70.9600 54.366
70.9800 53.772
71.0000 54.114
71.0200 54.267
71.0400 54.257
71.0600 54.207
71.0800 54.167
71.1000 54.340
71.1200 54.822
71.1400 54.936
71.1600 54.900
71.1800 54.413
71.2000 55.688
71.2200 54.619
71.2400 53.647
71.2600 54.426
71.2800 54.763
71.3000 54.974
71.3200 54.623
71.3400 54.594
71.3600 53.993
71.3800 54.015
71.4000 55.535
71.4200 55.019
71.4400 54.231
71.4600 54.054
71.4800 53.784
71.5000 54.909
71.5200 54.115
71.5400 53.900
71.5600 54.919
71.5800 53.842
71.6000 54.225
71.6200 54.852
71.6400 53.423
71.6600 55.772
71.6800 55.040
71.7000 55.399
71.7200 55.098
71.7400 54.467
71.7600 53.362
71.7800 54.257
71.8000 55.001
71.8200 55.043
71.8400 54.502
71.8600 54.982
71.8800 55.852
71.9000 54.690
71.9200 54.264
71.9400 54.939
71.9600 54.719
71.9800 53.609
72.0000 53.750
72.0200 54.564
72.0400 54.469
72.0600 54.022
72.0800 55.638
72.1000 56.154
72.1200 54.874
72.1400 53.580
72.1600 54.403
72.1800 55.082
72.2000 54.746
72.2200 55.345
72.2400 55.903
72.2600 55.119
72.2800 53.792
72.3000 54.723
72.3200 55.793
72.3400 55.734
72.3600 55.458
72.3800 55.099
72.4000 55.290
72.4200 56.026
72.4400 55.514
72.4600 56.370
72.4800 55.224
72.5000 55.238
72.5200 55.647
72.5400 55.007
72.5600 55.655
72.5800 55.883
72.6000 55.056
72.6200 56.231
72.6400 55.199
72.6600 55.020
72.6800 56.251
72.7000 56.022
72.7200 55.829
72.7400 56.513
72.7600 55.575
72.7800 56.263
72.8000 54.308
72.8200 56.901
72.8400 55.072
72.8600 56.078
72.8800 56.153
72.9000 55.770
72.9200 55.406
72.9400 56.301
72.9600 56.787
72.9800 56.417
73.0000 57.023
73.0200 56.166
73.0400 57.507
73.0600 55.321
73.0800 56.508
73.1000 56.590
73.1200 56.475
73.1400 56.669
73.1600 55.849
73.1800 55.693
73.2000 55.474
73.2200 55.054
73.2400 56.266
73.2600 56.693
73.2800 56.698
73.3000 55.232
73.3200 56.092
73.3400 58.027
73.3600 56.555
73.3800 56.179
73.4000 57.046
73.4200 55.449
73.4400 54.202
73.4600 55.309
73.4800 55.810
73.5000 56.232
73.5200 56.585
73.5400 56.788
73.5600 56.488
73.5800 55.965
73.6000 56.200
73.6200 55.944
73.6400 57.147
73.6600 56.259
73.6800 56.244
73.7000 57.679
73.7200 56.868
73.7400 57.000
73.7600 57.220
73.7800 56.825
73.8000 56.845
73.8200 56.715
73.8400 56.224
73.8600 55.771
73.8800 56.264
73.9000 57.303
73.9200 57.146
73.9400 56.912
73.9600 57.164
73.9800 57.179
74.0000 56.282
74.0200 56.205
74.0400 57.994
74.0600 57.867
74.0800 57.466
74.1000 56.653
74.1200 57.198
74.1400 56.552
74.1600 57.839
74.1800 56.384
74.2000 57.062
74.2200 58.230
74.2400 57.590
74.2600 57.599
74.2800 57.442
74.3000 56.936
74.3200 56.796
74.3400 56.711
74.3600 56.718
74.3800 57.646
74.4000 57.434
74.4200 57.692
74.4400 58.263
74.4600 56.394
74.4800 57.018
74.5000 56.553
74.5200 57.759
74.5400 57.961
74.5600 57.649
74.5800 57.054
74.6000 56.308
74.6200 56.724
74.6400 56.822
74.6600 57.248
74.6800 57.934
74.7000 56.664
74.7200 56.198
74.7400 56.698
74.7600 57.204
74.7800 56.302
74.8000 57.075
74.8200 56.162
74.8400 56.924
74.8600 56.740
74.8800 56.865
74.9000 57.514
74.9200 56.533
74.9400 57.745
74.9600 57.018
74.9800 57.258
75.0000 57.298
75.0200 57.305
75.0400 57.757
75.0600 57.912
75.0800 58.718
75.1000 57.991
75.1200 57.399
75.1400 58.499
75.1600 57.734
75.1800 57.449
75.2000 57.179
75.2200 57.974
75.2400 58.067
75.2600 58.402
75.2800 57.822
75.3000 57.351
75.3200 57.345
75.3400 57.233
75.3600 57.480
75.3800 57.887
75.4000 56.926
75.4200 56.847
75.4400 57.452
75.4600 57.519
75.4800 58.532
75.5000 57.973
75.5200 58.467
75.5400 58.582
75.5600 58.607
75.5800 57.940
75.6000 57.990
75.6200 58.580
75.6400 58.581
75.6600 58.430
75.6800 58.067
75.7000 58.759
75.7200 58.536
75.7400 58.784
75.7600 58.653
75.7800 57.872
75.8000 57.913
75.8200 58.407
75.8400 57.443
75.8600 58.719
75.8800 58.312
75.9000 57.893
75.9200 57.930
75.9400 57.998
75.9600 57.688
75.9800 58.833
76.0000 58.660
76.0200 58.308
76.0400 58.498
76.0600 58.651
76.0800 58.739
76.1000 59.018
76.1200 58.289
76.1400 58.699
76.1600 58.930
76.1800 58.605
76.2000 58.492
76.2200 58.169
76.2400 57.192
76.2600 57.911
76.2800 59.343
76.3000 58.141
76.3200 58.374
76.3400 59.112
76.3600 59.392
76.3800 56.900
76.4000 58.868
76.4200 59.298
76.4400 58.315
76.4600 58.659
76.4800 59.233
76.5000 59.393
76.5200 59.103
76.5400 59.791
76.5600 59.409
76.5800 58.027
76.6000 58.743
76.6200 58.327
76.6400 58.019
76.6600 58.814
76.6800 59.173
76.7000 59.164
76.7200 59.226
76.7400 60.076
76.7600 59.348
76.7800 60.034
76.8000 59.724
76.8200 59.799
76.8400 59.096
76.8600 59.624
76.8800 59.175
76.9000 58.720
76.9200 59.595
76.9400 59.463
76.9600 59.283
76.9800 58.485
77.0000 60.259
77.0200 58.637
77.0400 58.892
77.0600 59.331
77.0800 59.732
77.1000 60.790
77.1200 59.689
77.1400 59.267
77.1600 59.354
77.1800 60.572
77.2000 61.418
77.2200 59.965
77.2400 59.205
77.2600 59.909
77.2800 60.861
77.3000 60.582
77.3200 59.420
77.3400 58.550
77.3600 59.760
77.3800 61.348
77.4000 59.913
77.4200 59.265
77.4400 59.384
77.4600 59.022
77.4800 59.849
77.5000 60.827
77.5200 60.384
77.5400 59.134
77.5600 59.672
77.5800 59.640
77.6000 60.581
77.6200 59.519
77.6400 59.686
77.6600 59.199
77.6800 59.804
77.7000 60.388
77.7200 60.933
77.7400 59.319
77.7600 59.383
77.7800 59.181
77.8000 59.482
77.8200 59.323
77.8400 60.223
77.8600 60.170
77.8800 61.449
77.9000 61.243
77.9200 60.415
77.9400 60.449
77.9600 59.243
77.9800 60.406
78.0000 60.256
78.0200 60.378
78.0400 61.105
78.0600 61.344
78.0800 60.164
78.1000 60.250
78.1200 60.850
78.1400 60.306
78.1600 60.222
78.1800 59.389
78.2000 60.805
78.2200 60.967
78.2400 59.911
78.2600 59.820
78.2800 59.912
78.3000 61.572
78.3200 60.663
78.3400 59.920
78.3600 61.449
78.3800 61.833
78.4000 60.688
78.4200 60.845
78.4400 60.783
78.4600 61.213
78.4800 61.574
78.5000 60.640
78.5200 61.170
78.5400 61.671
78.5600 60.945
78.5800 60.069
78.6000 60.481
78.6200 60.158
78.6400 60.325
78.6600 60.929
78.6800 60.713
78.7000 61.737
78.7200 61.117
78.7400 60.192
78.7600 61.746
78.7800 62.011
78.8000 60.926
78.8200 60.938
78.8400 61.597
78.8600 61.428
78.8800 61.586
78.9000 60.749
78.9200 59.693
78.9400 60.321
78.9600 60.867
78.9800 61.723
79.0000 61.301
79.0200 61.212
79.0400 62.509
79.0600 60.962
79.0800 61.219
79.1000 61.359
79.1200 60.990
79.1400 61.597
79.1600 60.944
79.1800 60.482
79.2000 60.972
79.2200 60.327
79.2400 60.800
79.2600 61.414
79.2800 61.340
79.3000 62.554
79.3200 62.425
79.3400 62.754
79.3600 60.443
79.3800 61.608
79.4000 61.438
79.4200 59.814
79.4400 61.141
79.4600 63.225
79.4800 62.477
79.5000 61.405
79.5200 62.669
79.5400 61.017
79.5600 62.134
79.5800 62.793
79.6000 61.907
79.6200 62.545
79.6400 61.892
79.6600 61.667
79.6800 61.326
79.7000 61.745
79.7200 61.320
79.7400 61.981
79.7600 63.078
79.7800 62.216
79.8000 61.940
79.8200 62.021
79.8400 61.573
79.8600 62.202
79.8800 61.959
79.9000 62.685
79.9200 61.983
79.9400 62.172
79.9600 63.097
79.9800 62.397
80.0000 62.714
