'Id: "" Comment: "" Operator: "Lab Manager" Anode: "Cu" Scantype: "Coupled TwoTheta/Theta" TimePerStep: "113.4653" X: "9999" Y: "9999" Z: "-2.700037" 
20.0000 6.937
20.0200 6.873
20.0400 6.706
20.0600 6.830
20.0800 7.172
20.1000 7.083
20.1200 7.272
20.1400 7.346
20.1600 7.546
20.1800 7.300
20.2000 7.501
20.2200 7.382
20.2400 7.480
20.2600 7.245
20.2800 7.092
20.3000 6.922
20.3200 6.865
20.3400 7.065
20.3600 7.720
20.3800 7.467
20.4000 7.205
20.4200 7.251
20.4400 7.285
20.4600 7.630
20.4800 7.139
20.5000 7.390
20.5200 7.465
20.5400 7.502
20.5600 7.469
20.5800 7.792
20.6000 7.814
20.6200 7.256
20.6400 7.406
20.6600 7.296
20.6800 7.640
20.7000 7.523
20.7200 7.973
20.7400 7.375
20.7600 7.888
20.7800 7.758
20.8000 7.599
20.8200 7.861
20.8400 8.536
20.8600 7.814
20.8800 7.805
20.9000 7.937
20.9200 8.074
20.9400 7.755
20.9600 7.803
20.9800 7.721
21.0000 7.880
21.0200 7.879
21.0400 8.038
21.0600 7.383
21.0800 7.688
21.1000 8.492
21.1200 8.295
21.1400 7.998
21.1600 8.071
21.1800 7.956
21.2000 8.330
21.2200 7.924
21.2400 7.873
21.2600 8.626
21.2800 8.173
21.3000 8.248
21.3200 8.452
21.3400 8.722
21.3600 8.706
21.3800 8.293
21.4000 8.224
21.4200 8.479
21.4400 8.229
21.4600 8.236
21.4800 8.719
21.5000 8.337
21.5200 8.408
21.5400 8.153
21.5600 8.003
21.5800 8.336
21.6000 8.370
21.6200 8.693
21.6400 8.642
21.6600 8.901
21.6800 8.716
21.7000 8.599
21.7200 8.681
21.7400 8.871
21.7600 8.992
21.7800 8.882
21.8000 8.431
21.8200 8.554
21.8400 8.839
21.8600 8.933
21.8800 9.055
21.9000 8.863
21.9200 9.084
21.9400 8.762
21.9600 9.211
21.9800 8.955
22.0000 8.927
22.0200 9.184
22.0400 8.788
22.0600 9.188
22.0800 8.940
22.1000 8.881
22.1200 8.897
22.1400 8.702
22.1600 8.850
22.1800 9.027
22.2000 9.113
22.2200 9.051
22.2400 9.011
22.2600 8.668
22.2800 9.285
22.3000 9.427
22.3200 9.369
22.3400 9.028
22.3600 9.345
22.3800 9.361
22.4000 9.586
22.4200 10.148
22.4400 9.430
22.4600 9.455
22.4800 9.099
22.5000 9.191
22.5200 9.282
22.5400 9.847
22.5600 9.169
22.5800 9.804
22.6000 9.414
22.6200 9.129
22.6400 9.466
22.6600 9.578
22.6800 10.087
22.7000 9.467
22.7200 9.872
22.7400 9.167
22.7600 9.540
22.7800 9.811
22.8000 9.363
22.8200 9.628
22.8400 9.732
22.8600 9.718
22.8800 9.345
22.9000 9.497
22.9200 9.594
22.9400 9.580
22.9600 9.746
22.9800 9.688
23.0000 9.806
23.0200 9.905
23.0400 9.972
23.0600 9.972
23.0800 9.919
23.1000 9.787
23.1200 10.607
23.1400 10.301
23.1600 10.463
23.1800 10.226
23.2000 9.896
23.2200 10.647
23.2400 10.010
23.2600 9.911
23.2800 9.747
23.3000 10.035
23.3200 9.943
23.3400 10.241
23.3600 10.289
23.3800 9.729
23.4000 9.865
23.4200 10.109
23.4400 10.189
23.4600 9.857
23.4800 9.743
23.5000 10.108
23.5200 10.500
23.5400 10.557
23.5600 10.239
23.5800 10.429
23.6000 10.445
23.6200 10.267
23.6400 10.114
23.6600 10.350
23.6800 10.480
23.7000 10.584
23.7200 10.607
23.7400 10.573
23.7600 10.373
23.7800 10.909
23.8000 10.908
23.8200 10.920
23.8400 10.783
23.8600 10.350
23.8800 9.949
23.9000 10.853
23.9200 11.179
23.9400 11.102
23.9600 10.235
23.9800 10.730
24.0000 10.301
24.0200 10.167
24.0400 10.832
24.0600 10.548
24.0800 10.300
24.1000 10.593
24.1200 10.220
24.1400 10.495
24.1600 10.811
24.1800 10.728
24.2000 10.408
24.2200 10.793
24.2400 10.892
24.2600 11.037
24.2800 10.674
24.3000 10.553
24.3200 11.220
24.3400 11.291
24.3600 10.634
24.3800 11.218
24.4000 10.988
24.4200 11.080
24.4400 10.546
24.4600 11.173
24.4800 10.851
24.5000 10.398
24.5200 10.655
24.5400 11.188
24.5600 11.257
24.5800 10.908
24.6000 11.086
24.6200 11.048
24.6400 11.227
24.6600 11.367
24.6800 11.166
24.7000 11.114
24.7200 11.196
24.7400 11.142
24.7600 11.165
24.7800 10.833
24.8000 11.613
24.8200 10.940
24.8400 11.494
24.8600 11.035
24.8800 10.793
24.9000 11.589
24.9200 11.284
24.9400 11.380
24.9600 11.237
24.9800 11.218
25.0000 11.261
25.0200 11.303
25.0400 11.091
25.0600 11.667
25.0800 12.009
25.1000 11.388
25.1200 11.292
25.1400 11.019
25.1600 11.321
25.1800 11.665
25.2000 11.466
25.2200 11.694
25.2400 11.882
25.2600 11.287
25.2800 11.758
25.3000 11.254
25.3200 11.305
25.3400 11.606
25.3600 11.785
25.3800 12.180
25.4000 11.956
25.4200 11.829
25.4400 11.962
25.4600 11.660
25.4800 11.733
25.5000 11.576
25.5200 12.089
25.5400 11.996
25.5600 11.533
25.5800 11.699
25.6000 11.758
25.6200 12.023
25.6400 11.575
25.6600 11.565
25.6800 11.497
25.7000 11.487
25.7200 12.059
25.7400 12.075
25.7600 12.199
25.7800 11.656
25.8000 12.027
25.8200 11.909
25.8400 12.115
25.8600 12.000
25.8800 12.039
25.9000 12.580
25.9200 12.304
25.9400 11.673
25.9600 11.902
25.9800 11.529
26.0000 12.173
26.0200 12.499
26.0400 12.134
26.0600 12.339
26.0800 12.308
26.1000 12.020
26.1200 12.199
26.1400 11.664
26.1600 12.303
26.1800 12.486
26.2000 12.324
26.2200 12.377
26.2400 12.583
26.2600 12.205
26.2800 11.799
26.3000 12.186
26.3200 12.065
26.3400 12.696
26.3600 12.549
26.3800 12.826
26.4000 12.793
26.4200 12.353
26.4400 12.420
26.4600 12.455
26.4800 12.975
26.5000 12.577
26.5200 12.617
26.5400 12.667
26.5600 12.563
26.5800 12.672
26.6000 12.426
26.6200 12.719
26.6400 12.977
26.6600 13.362
26.6800 12.647
26.7000 12.687
26.7200 13.040
26.7400 13.146
26.7600 13.040
26.7800 12.730
26.8000 13.216
26.8200 12.761
26.8400 12.990
26.8600 12.687
26.8800 13.389
26.9000 13.059
26.9200 12.766
26.9400 12.951
26.9600 13.146
26.9800 12.854
27.0000 12.828
27.0200 12.966
27.0400 12.812
27.0600 13.127
27.0800 13.279
27.1000 13.510
27.1200 13.437
27.1400 12.795
27.1600 13.291
27.1800 12.990
27.2000 13.072
27.2200 12.616
27.2400 13.394
27.2600 13.271
27.2800 13.563
27.3000 13.290
27.3200 13.302
27.3400 13.266
27.3600 13.275
27.3800 13.937
27.4000 13.299
27.4200 13.547
27.4400 13.618
27.4600 14.150
27.4800 12.973
27.5000 13.340
27.5200 13.151
27.5400 13.289
27.5600 13.946
27.5800 14.054
27.6000 13.393
27.6200 13.334
27.6400 13.232
27.6600 13.065
27.6800 13.248
27.7000 13.982
27.7200 13.743
27.7400 13.614
27.7600 13.972
27.7800 13.223
27.8000 13.862
27.8200 13.792
27.8400 13.641
27.8600 13.228
27.8800 13.051
27.9000 13.822
27.9200 13.459
27.9400 13.391
27.9600 13.498
27.9800 13.744
28.0000 13.708
28.0200 13.992
28.0400 14.009
28.0600 13.762
28.0800 13.880
28.1000 13.925
28.1200 13.818
28.1400 14.380
28.1600 13.960
28.1800 13.785
28.2000 13.657
28.2200 13.879
28.2400 14.274
28.2600 13.819
28.2800 13.797
28.3000 14.067
28.3200 14.108
28.3400 13.764
28.3600 14.144
28.3800 14.232
28.4000 14.402
28.4200 13.990
28.4400 14.082
28.4600 14.637
28.4800 14.555
28.5000 13.928
28.5200 14.217
28.5400 14.095
28.5600 14.406
28.5800 14.330
28.6000 13.646
28.6200 14.606
28.6400 14.698
28.6600 13.922
28.6800 14.472
28.7000 13.994
28.7200 14.701
28.7400 14.325
28.7600 14.318
28.7800 14.637
28.8000 14.677
28.8200 13.808
28.8400 14.340
28.8600 14.783
28.8800 14.687
28.9000 14.319
28.9200 14.575
28.9400 14.828
28.9600 14.599
28.9800 14.020
29.0000 14.675
29.0200 14.825
29.0400 14.292
29.0600 14.521
29.0800 14.224
29.1000 15.092
29.1200 14.736
29.1400 14.906
29.1600 15.319
29.1800 14.400
29.2000 14.951
29.2200 14.485
29.2400 15.429
29.2600 15.088
29.2800 14.976
29.3000 15.430
29.3200 15.231
29.3400 15.469
29.3600 15.354
29.3800 14.904
29.4000 15.309
29.4200 15.441
29.4400 15.076
29.4600 15.439
29.4800 15.555
29.5000 15.458
29.5200 15.565
29.5400 14.998
29.5600 15.556
29.5800 15.651
29.6000 15.929
29.6200 16.212
29.6400 16.541
29.6600 15.839
29.6800 16.885
29.7000 16.176
29.7200 16.028
29.7400 15.929
29.7600 15.781
29.7800 16.291
29.8000 16.670
29.8200 16.411
29.8400 15.447
29.8600 15.460
29.8800 15.345
29.9000 15.547
29.9200 15.882
29.9400 15.608
29.9600 15.630
29.9800 15.383
30.0000 14.892
30.0200 15.308
30.0400 16.540
30.0600 16.072
30.0800 16.085
30.1000 15.566
30.1200 15.373
30.1400 15.991
30.1600 15.390
30.1800 15.800
30.2000 16.289
30.2200 15.411
30.2400 15.529
30.2600 15.957
30.2800 15.670
30.3000 16.241
30.3200 15.524
30.3400 15.343
30.3600 15.435
30.3800 16.227
30.4000 15.820
30.4200 16.170
30.4400 16.407
30.4600 16.042
30.4800 15.305
30.5000 16.304
30.5200 15.795
30.5400 15.769
30.5600 15.992
30.5800 16.504
30.6000 16.017
30.6200 16.053
30.6400 15.833
30.6600 15.808
30.6800 16.725
30.7000 16.185
30.7200 16.431
30.7400 16.026
30.7600 16.410
30.7800 16.379
30.8000 16.659
30.8200 16.640
30.8400 16.572
30.8600 16.392
30.8800 16.596
30.9000 16.448
30.9200 16.592
30.9400 16.181
30.9600 16.408
30.9800 16.641
31.0000 16.003
31.0200 15.996
31.0400 16.343
31.0600 16.488
31.0800 16.710
31.1000 16.658
31.1200 16.221
31.1400 16.924
31.1600 16.941
31.1800 16.758
31.2000 17.255
31.2200 16.651
31.2400 16.311
31.2600 16.837
31.2800 17.378
31.3000 17.063
31.3200 16.952
31.3400 16.787
31.3600 16.393
31.3800 17.207
31.4000 17.092
31.4200 16.779
31.4400 17.279
31.4600 17.265
31.4800 17.391
31.5000 17.002
31.5200 17.610
31.5400 17.477
31.5600 16.871
31.5800 17.140
31.6000 17.633
31.6200 16.954
31.6400 17.542
31.6600 17.458
31.6800 16.785
31.7000 16.850
31.7200 16.882
31.7400 16.790
31.7600 17.184
31.7800 17.975
31.8000 17.584
31.8200 17.279
31.8400 17.133
31.8600 17.365
31.8800 16.818
31.9000 17.215
31.9200 17.814
31.9400 17.061
31.9600 17.754
31.9800 17.622
32.0000 17.602
32.0200 17.902
32.0400 17.624
32.0600 17.662
32.0800 17.582
32.1000 17.325
32.1200 17.198
32.1400 17.323
32.1600 17.428
32.1800 17.890
32.2000 17.479
32.2200 17.636
32.2400 17.876
32.2600 17.516
32.2800 17.967
32.3000 16.841
32.3200 17.784
32.3400 18.031
32.3600 18.369
32.3800 17.801
32.4000 17.803
32.4200 18.002
32.4400 18.740
32.4600 18.089
32.4800 17.279
32.5000 17.821
32.5200 18.265
32.5400 18.233
32.5600 17.932
32.5800 18.319
32.6000 17.810
32.6200 17.896
32.6400 17.489
32.6600 18.009
32.6800 18.241
32.7000 18.337
32.7200 18.619
32.7400 17.905
32.7600 18.214
32.7800 18.308
32.8000 18.659
32.8200 18.868
32.8400 18.064
32.8600 18.319
32.8800 18.747
32.9000 18.659
32.9200 18.259
32.9400 17.691
32.9600 19.092
32.9800 19.306
33.0000 18.627
33.0200 18.804
33.0400 18.376
33.0600 18.572
33.0800 18.807
33.1000 18.934
33.1200 19.109
33.1400 18.621
33.1600 17.888
33.1800 18.885
33.2000 17.834
33.2200 18.996
33.2400 18.685
33.2600 18.444
33.2800 18.823
33.3000 18.548
33.3200 18.896
33.3400 18.881
33.3600 18.922
33.3800 19.042
33.4000 19.013
33.4200 19.210
33.4400 18.651
33.4600 18.663
33.4800 19.446
33.5000 19.280
33.5200 18.918
33.5400 19.248
33.5600 19.158
33.5800 19.088
33.6000 19.260
33.6200 19.201
33.6400 18.755
33.6600 18.423
33.6800 19.210
33.7000 19.419
33.7200 19.998
33.7400 19.961
33.7600 18.924
33.7800 19.041
33.8000 18.836
33.8200 19.192
33.8400 20.191
33.8600 19.959
33.8800 19.624
33.9000 19.506
33.9200 19.036
33.9400 19.629
33.9600 18.953
33.9800 19.725
34.0000 18.990
34.0200 19.790
34.0400 19.719
34.0600 20.371
34.0800 19.707
34.1000 20.166
34.1200 20.769
34.1400 20.290
34.1600 19.942
34.1800 19.859
34.2000 20.052
34.2200 19.930
34.2400 20.182
34.2600 19.534
34.2800 20.098
34.3000 20.464
34.3200 19.731
34.3400 19.790
34.3600 19.423
34.3800 20.310
34.4000 20.058
34.4200 19.594
34.4400 19.706
34.4600 19.938
34.4800 20.157
34.5000 20.403
34.5200 20.635
34.5400 20.366
34.5600 20.039
34.5800 20.933
34.6000 20.624
34.6200 20.138
34.6400 20.240
34.6600 20.464
34.6800 20.476
34.7000 21.335
34.7200 21.482
34.7400 20.601
34.7600 20.635
34.7800 21.226
34.8000 21.255
34.8200 21.396
34.8400 20.790
34.8600 21.257
34.8800 20.851
34.9000 21.812
34.9200 22.473
34.9400 23.301
34.9600 23.448
34.9800 22.854
35.0000 23.865
35.0200 22.888
35.0400 22.486
35.0600 23.073
35.0800 22.758
35.1000 22.398
35.1200 22.142
35.1400 21.399
35.1600 21.156
35.1800 21.983
35.2000 21.371
35.2200 21.441
35.2400 21.362
35.2600 21.066
35.2800 21.975
35.3000 21.389
35.3200 21.444
35.3400 21.609
35.3600 21.274
35.3800 21.404
35.4000 21.861
35.4200 20.836
35.4400 20.900
35.4600 21.873
35.4800 21.295
35.5000 21.628
35.5200 20.903
35.5400 21.225
35.5600 21.390
35.5800 21.951
35.6000 21.717
35.6200 21.346
35.6400 21.516
35.6600 21.012
35.6800 21.162
35.7000 21.526
35.7200 21.309
35.7400 21.065
35.7600 21.362
35.7800 21.623
35.8000 21.616
35.8200 21.365
35.8400 21.593
35.8600 21.794
35.8800 21.252
35.9000 21.421
35.9200 21.498
35.9400 21.762
35.9600 21.508
35.9800 21.817
36.0000 21.485
36.0200 21.851
36.0400 22.159
36.0600 21.201
36.0800 21.451
36.1000 21.509
36.1200 22.057
36.1400 21.670
36.1600 21.497
36.1800 22.017
36.2000 21.462
36.2200 21.845
36.2400 22.040
36.2600 22.396
36.2800 22.475
36.3000 21.452
36.3200 22.762
36.3400 22.318
36.3600 21.883
36.3800 22.224
36.4000 22.446
36.4200 22.141
36.4400 22.122
36.4600 22.354
36.4800 22.736
36.5000 23.210
36.5200 22.211
36.5400 23.330
36.5600 22.963
36.5800 22.685
36.6000 22.721
36.6200 22.520
36.6400 23.005
36.6600 22.996
36.6800 22.410
36.7000 22.884
36.7200 22.347
36.7400 22.852
36.7600 23.164
36.7800 23.440
36.8000 22.908
36.8200 22.435
36.8400 22.030
36.8600 22.616
36.8800 22.760
36.9000 22.868
36.9200 22.501
36.9400 23.519
36.9600 23.529
36.9800 22.631
37.0000 23.117
37.0200 23.303
37.0400 23.524
37.0600 23.242
37.0800 23.570
37.1000 23.368
37.1200 24.020
37.1400 24.130
37.1600 23.740
37.1800 23.050
37.2000 23.417
37.2200 24.257
37.2400 24.051
37.2600 23.826
37.2800 24.296
37.3000 23.952
37.3200 24.213
37.3400 24.188
37.3600 23.921
37.3800 23.613
37.4000 24.333
37.4200 24.188
37.4400 24.369
37.4600 24.659
37.4800 24.184
37.5000 24.253
37.5200 24.241
37.5400 24.358
37.5600 24.027
37.5800 24.038
37.6000 24.342
37.6200 25.146
37.6400 24.367
37.6600 24.783
37.6800 25.056
37.7000 23.916
37.7200 24.641
37.7400 24.177
37.7600 24.121
37.7800 24.510
37.8000 24.268
37.8200 23.937
37.8400 24.352
37.8600 24.264
37.8800 24.793
37.9000 24.525
37.9200 24.733
37.9400 24.883
37.9600 24.600
37.9800 25.252
38.0000 24.950
38.0200 25.889
38.0400 26.092
38.0600 25.636
38.0800 25.343
38.1000 25.204
38.1200 24.985
38.1400 26.269
38.1600 25.657
38.1800 24.776
38.2000 25.098
38.2200 24.886
38.2400 25.654
38.2600 25.616
38.2800 25.749
38.3000 26.241
38.3200 25.650
38.3400 25.221
38.3600 25.750
38.3800 26.189
38.4000 25.938
38.4200 25.908
38.4400 25.619
38.4600 25.229
38.4800 25.489
38.5000 25.638
38.5200 25.407
38.5400 25.690
38.5600 25.773
38.5800 25.442
38.6000 25.338
38.6200 25.666
38.6400 25.291
38.6600 26.128
38.6800 26.623
38.7000 26.572
38.7200 25.635
38.7400 25.806
38.7600 26.144
38.7800 26.241
38.8000 26.217
38.8200 26.652
38.8400 25.945
38.8600 25.661
38.8800 26.523
38.9000 26.294
38.9200 26.046
38.9400 26.838
38.9600 27.334
38.9800 26.718
39.0000 25.974
39.0200 26.286
39.0400 26.873
39.0600 26.159
39.0800 26.194
39.1000 26.732
39.1200 26.776
39.1400 26.245
39.1600 26.467
39.1800 26.569
39.2000 27.048
39.2200 26.944
39.2400 26.688
39.2600 26.495
39.2800 26.480
39.3000 26.190
39.3200 26.669
39.3400 26.950
39.3600 27.011
39.3800 28.044
39.4000 27.584
39.4200 26.821
39.4400 27.631
39.4600 26.595
39.4800 26.975
39.5000 27.536
39.5200 27.145
39.5400 27.482
39.5600 27.023
39.5800 27.069
39.6000 27.573
39.6200 27.111
39.6400 27.543
39.6600 27.984
39.6800 27.105
39.7000 27.259
39.7200 27.598
39.7400 27.486
39.7600 26.708
39.7800 26.618
39.8000 27.602
39.8200 27.923
39.8400 28.042
39.8600 27.367
39.8800 27.167
39.9000 27.290
39.9200 27.477
39.9400 27.530
39.9600 27.948
39.9800 27.187
40.0000 27.370
40.0200 27.494
40.0400 27.942
40.0600 26.992
40.0800 27.943
40.1000 28.931
40.1200 27.440
40.1400 27.374
40.1600 26.993
40.1800 27.463
40.2000 27.718
40.2200 27.693
40.2400 28.387
40.2600 28.244
40.2800 28.455
40.3000 27.070
40.3200 26.736
40.3400 27.878
40.3600 27.476
40.3800 27.555
40.4000 27.848
40.4200 27.467
40.4400 27.339
40.4600 27.974
40.4800 27.751
40.5000 27.945
40.5200 28.367
40.5400 28.639
40.5600 28.394
40.5800 28.923
40.6000 28.019
40.6200 27.767
40.6400 28.099
40.6600 28.173
40.6800 29.024
40.7000 29.140
40.7200 28.190
40.7400 28.332
40.7600 28.846
40.7800 28.492
40.8000 28.717
40.8200 28.866
40.8400 28.089
40.8600 28.720
40.8800 28.691
40.9000 28.712
40.9200 28.653
40.9400 28.819
40.9600 28.630
40.9800 27.489
41.0000 28.721
41.0200 29.269
41.0400 29.201
41.0600 28.989
41.0800 28.181
41.1000 28.783
41.1200 28.693
41.1400 28.927
41.1600 28.391
41.1800 29.056
41.2000 27.713
41.2200 28.563
41.2400 28.860
41.2600 28.693
41.2800 28.991
41.3000 28.279
41.3200 28.150
41.3400 28.913
41.3600 28.984
41.3800 28.706
41.4000 28.550
41.4200 29.139
41.4400 29.291
41.4600 29.208
41.4800 28.645
41.5000 29.201
41.5200 29.206
41.5400 28.241
41.5600 28.939
41.5800 28.773
41.6000 29.118
41.6200 28.972
41.6400 29.058
41.6600 28.812
41.6800 29.623
41.7000 29.071
41.7200 30.002
41.7400 29.546
41.7600 29.144
41.7800 29.125
41.8000 28.584
41.8200 28.867
41.8400 29.800
41.8600 29.804
41.8800 29.561
41.9000 29.405
41.9200 29.783
41.9400 29.989
41.9600 29.577
41.9800 29.356
42.0000 29.713
42.0200 29.328
42.0400 29.652
42.0600 29.453
42.0800 29.919
42.1000 29.612
42.1200 29.402
42.1400 29.727
42.1600 29.821
42.1800 30.004
42.2000 29.654
42.2200 29.501
42.2400 29.754
42.2600 30.610
42.2800 30.303
42.3000 29.392
42.3200 30.163
42.3400 30.335
42.3600 30.554
42.3800 30.924
42.4000 30.636
42.4200 30.495
42.4400 30.698
42.4600 31.287
42.4800 31.260
42.5000 32.396
42.5200 31.820
42.5400 32.038
42.5600 32.193
42.5800 31.693
42.6000 31.641
42.6200 31.441
42.6400 32.439
42.6600 31.787
42.6800 31.246
42.7000 32.163
42.7200 31.065
42.7400 30.479
42.7600 31.089
42.7800 31.362
42.8000 30.349
42.8200 29.778
42.8400 30.236
42.8600 31.031
42.8800 31.054
42.9000 30.715
42.9200 30.094
42.9400 29.750
42.9600 30.009
42.9800 29.801
43.0000 30.285
43.0200 30.720
43.0400 30.930
43.0600 30.179
43.0800 31.043
43.1000 30.317
43.1200 30.296
43.1400 30.303
43.1600 31.187
43.1800 30.906
43.2000 29.896
43.2200 29.994
43.2400 30.632
43.2600 31.474
43.2800 31.073
43.3000 30.910
43.3200 30.591
43.3400 31.078
43.3600 30.889
43.3800 30.209
43.4000 31.354
43.4200 31.135
43.4400 31.798
43.4600 31.134
43.4800 30.647
43.5000 31.248
43.5200 30.856
43.5400 30.885
43.5600 30.678
43.5800 30.905
43.6000 30.841
43.6200 30.932
43.6400 31.362
43.6600 31.201
43.6800 32.012
43.7000 32.029
43.7200 31.522
43.7400 32.134
43.7600 31.959
43.7800 32.091
43.8000 32.325
43.8200 32.316
43.8400 32.284
43.8600 33.467
43.8800 33.422
43.9000 32.495
43.9200 33.187
43.9400 34.126
43.9600 34.717
43.9800 35.043
44.0000 37.164
44.0200 38.814
44.0400 42.006
44.0600 46.294
44.0800 51.765
44.1000 55.508
44.1200 60.126
44.1400 60.826
44.1600 61.863
44.1800 58.437
44.2000 56.743
44.2200 54.318
44.2400 52.888
44.2600 49.949
44.2800 46.806
44.3000 44.350
44.3200 40.726
44.3400 38.196
44.3600 35.597
44.3800 34.766
44.4000 34.395
44.4200 33.447
44.4400 33.688
44.4600 33.386
44.4800 32.376
44.5000 31.913
44.5200 32.690
44.5400 32.889
44.5600 32.439
44.5800 32.803
44.6000 32.085
44.6200 31.531
44.6400 31.508
44.6600 31.322
44.6800 32.381
44.7000 32.233
44.7200 32.426
44.7400 34.077
44.7600 35.254
44.7800 38.712
44.8000 40.879
44.8200 41.747
44.8400 40.535
44.8600 40.014
44.8800 40.065
44.9000 40.844
44.9200 43.633
44.9400 43.204
44.9600 42.831
44.9800 41.413
45.0000 41.180
45.0200 41.355
45.0400 41.122
45.0600 41.706
45.0800 41.006
45.1000 40.866
45.1200 41.167
45.1400 41.021
45.1600 41.221
45.1800 40.593
45.2000 39.864
45.2200 38.207
45.2400 38.354
45.2600 38.982
45.2800 37.707
45.3000 36.045
45.3200 37.060
45.3400 35.658
45.3600 35.283
45.3800 35.215
45.4000 34.958
45.4200 34.913
45.4400 33.606
45.4600 32.943
45.4800 32.718
45.5000 33.064
45.5200 32.791
45.5400 33.067
45.5600 33.114
45.5800 32.691
45.6000 32.787
45.6200 31.861
45.6400 31.683
45.6600 32.860
45.6800 32.101
45.7000 31.170
45.7200 31.938
45.7400 31.564
45.7600 31.358
45.7800 32.396
45.8000 32.029
45.8200 31.613
45.8400 32.449
45.8600 32.911
45.8800 32.043
45.9000 32.956
45.9200 33.151
45.9400 31.653
45.9600 32.542
45.9800 32.241
46.0000 31.691
46.0200 31.715
46.0400 32.240
46.0600 32.564
46.0800 32.160
46.1000 32.041
46.1200 32.024
46.1400 31.775
46.1600 32.123
46.1800 32.331
46.2000 31.910
46.2200 31.327
46.2400 32.425
46.2600 32.003
46.2800 32.749
46.3000 32.128
46.3200 32.413
46.3400 32.197
46.3600 32.115
46.3800 32.876
46.4000 32.892
46.4200 32.864
46.4400 31.992
46.4600 32.548
46.4800 32.898
46.5000 31.061
46.5200 31.585
46.5400 33.073
46.5600 32.452
46.5800 32.454
46.6000 32.177
46.6200 32.673
46.6400 32.094
46.6600 31.969
46.6800 32.713
46.7000 32.727
46.7200 32.838
46.7400 32.454
46.7600 33.010
46.7800 32.859
46.8000 33.476
46.8200 33.090
46.8400 32.468
46.8600 32.347
46.8800 31.920
46.9000 32.335
46.9200 33.113
46.9400 32.905
46.9600 33.020
46.9800 32.149
47.0000 32.491
47.0200 32.333
47.0400 31.921
47.0600 32.836
47.0800 33.007
47.1000 32.417
47.1200 32.430
47.1400 32.784
47.1600 33.540
47.1800 33.509
47.2000 33.981
47.2200 33.097
47.2400 32.984
47.2600 32.409
47.2800 32.806
47.3000 33.027
47.3200 33.197
47.3400 33.222
47.3600 32.541
47.3800 32.645
47.4000 33.304
47.4200 33.805
47.4400 33.579
47.4600 32.516
47.4800 33.762
47.5000 33.253
47.5200 33.241
47.5400 33.172
47.5600 33.690
47.5800 33.378
47.6000 34.010
47.6200 33.665
47.6400 33.267
47.6600 33.475
47.6800 32.872
47.7000 31.995
47.7200 33.497
47.7400 33.469
47.7600 32.982
47.7800 34.416
47.8000 33.831
47.8200 33.498
47.8400 33.068
47.8600 32.838
47.8800 33.438
47.9000 32.784
47.9200 34.241
47.9400 33.672
47.9600 33.964
47.9800 33.440
48.0000 33.397
48.0200 33.227
48.0400 33.728
48.0600 33.380
48.0800 33.274
48.1000 33.517
48.1200 34.053
48.1400 34.081
48.1600 33.639
48.1800 33.636
48.2000 33.477
48.2200 34.106
48.2400 34.286
48.2600 33.108
48.2800 34.502
48.3000 33.034
48.3200 33.350
48.3400 34.166
48.3600 34.130
48.3800 33.753
48.4000 32.606
48.4200 32.833
48.4400 33.251
48.4600 34.036
48.4800 33.122
48.5000 33.911
48.5200 33.701
48.5400 34.358
48.5600 33.695
48.5800 33.897
48.6000 33.924
48.6200 33.287
48.6400 34.214
48.6600 33.816
48.6800 34.245
48.7000 34.183
48.7200 34.114
48.7400 33.888
48.7600 34.284
48.7800 34.403
48.8000 34.193
48.8200 34.369
48.8400 34.694
48.8600 34.001
48.8800 33.641
48.9000 33.548
48.9200 34.619
48.9400 33.944
48.9600 35.111
48.9800 34.688
49.0000 34.496
49.0200 33.961
49.0400 34.771
49.0600 34.689
49.0800 34.069
49.1000 34.366
49.1200 34.372
49.1400 34.016
49.1600 34.461
49.1800 34.840
49.2000 34.557
49.2200 33.985
49.2400 34.264
49.2600 33.554
49.2800 34.448
49.3000 34.484
49.3200 33.880
49.3400 34.570
49.3600 34.234
49.3800 33.977
49.4000 33.725
49.4200 34.098
49.4400 34.622
49.4600 35.332
49.4800 34.982
49.5000 35.102
49.5200 34.993
49.5400 34.995
49.5600 35.234
49.5800 35.027
49.6000 34.606
49.6200 34.368
49.6400 34.544
49.6600 35.090
49.6800 34.705
49.7000 34.845
49.7200 34.803
49.7400 34.679
49.7600 35.264
49.7800 34.406
49.8000 34.641
49.8200 34.456
49.8400 34.620
49.8600 35.542
49.8800 35.555
49.9000 34.888
49.9200 34.426
49.9400 34.989
49.9600 35.852
49.9800 35.153
50.0000 35.408
50.0200 35.187
50.0400 34.465
50.0600 35.591
50.0800 34.617
50.1000 35.467
50.1200 34.971
50.1400 35.691
50.1600 35.015
50.1800 35.401
50.2000 35.447
50.2200 35.402
50.2400 35.755
50.2600 36.187
50.2800 36.452
50.3000 35.898
50.3200 34.865
50.3400 35.848
50.3600 35.788
50.3800 35.372
50.4000 35.758
50.4200 36.349
50.4400 35.282
50.4600 35.377
50.4800 35.651
50.5000 35.756
50.5200 36.072
50.5400 35.176
50.5600 34.205
50.5800 35.088
50.6000 35.558
50.6200 35.561
50.6400 36.226
50.6600 36.806
50.6800 36.340
50.7000 36.439
50.7200 36.490
50.7400 35.125
50.7600 35.881
50.7800 36.809
50.8000 35.361
50.8200 35.400
50.8400 35.594
50.8600 36.424
50.8800 36.237
50.9000 36.206
50.9200 36.668
50.9400 35.167
50.9600 35.703
50.9800 37.258
51.0000 37.044
51.0200 36.125
51.0400 35.091
51.0600 36.060
51.0800 36.544
51.1000 37.011
51.1200 36.605
51.1400 36.722
51.1600 36.268
51.1800 36.614
51.2000 36.727
51.2200 38.198
51.2400 35.899
51.2600 36.499
51.2800 37.432
51.3000 36.756
51.3200 36.264
51.3400 36.053
51.3600 35.880
51.3800 36.131
51.4000 35.815
51.4200 36.161
51.4400 37.045
51.4600 37.676
51.4800 37.507
51.5000 36.713
51.5200 36.333
51.5400 36.778
51.5600 36.284
51.5800 36.979
51.6000 37.295
51.6200 37.442
51.6400 36.419
51.6600 36.633
51.6800 35.806
51.7000 36.876
51.7200 36.924
51.7400 36.178
51.7600 37.016
51.7800 37.413
51.8000 36.621
51.8200 37.299
51.8400 36.945
51.8600 36.616
51.8800 37.964
51.9000 36.647
51.9200 36.060
51.9400 36.148
51.9600 37.275
51.9800 36.996
52.0000 37.719
52.0200 37.591
52.0400 37.372
52.0600 37.216
52.0800 37.955
52.1000 37.630
52.1200 36.353
52.1400 36.892
52.1600 36.861
52.1800 36.603
52.2000 37.182
52.2200 37.837
52.2400 38.499
52.2600 38.260
52.2800 37.485
52.3000 37.128
52.3200 36.993
52.3400 37.496
52.3600 37.551
52.3800 37.288
52.4000 37.574
52.4200 37.035
52.4400 37.676
52.4600 37.611
52.4800 37.842
52.5000 37.637
52.5200 37.592
52.5400 36.598
52.5600 38.088
52.5800 37.208
52.6000 37.564
52.6200 37.041
52.6400 37.726
52.6600 37.645
52.6800 37.799
52.7000 37.258
52.7200 37.396
52.7400 37.624
52.7600 38.270
52.7800 37.451
52.8000 37.822
52.8200 38.295
52.8400 38.782
52.8600 37.713
52.8800 37.939
52.9000 37.995
52.9200 36.991
52.9400 37.847
52.9600 37.903
52.9800 38.064
53.0000 38.376
53.0200 37.832
53.0400 38.165
53.0600 38.021
53.0800 37.636
53.1000 37.765
53.1200 38.351
53.1400 37.870
53.1600 36.536
53.1800 37.941
53.2000 38.348
53.2200 36.586
53.2400 37.326
53.2600 38.161
53.2800 38.529
53.3000 37.741
53.3200 38.051
53.3400 37.520
53.3600 37.900
53.3800 37.960
53.4000 38.342
53.4200 37.995
53.4400 38.178
53.4600 38.581
53.4800 38.154
53.5000 38.552
53.5200 37.550
53.5400 38.478
53.5600 37.678
53.5800 37.144
53.6000 38.907
53.6200 39.371
53.6400 37.729
53.6600 37.919
53.6800 37.374
53.7000 37.970
53.7200 38.439
53.7400 39.074
53.7600 39.159
53.7800 38.237
53.8000 38.113
53.8200 38.264
53.8400 38.766
53.8600 39.111
53.8800 37.826
53.9000 38.554
53.9200 38.563
53.9400 37.364
53.9600 37.404
53.9800 38.286
54.0000 38.555
54.0200 38.060
54.0400 38.974
54.0600 38.150
54.0800 38.883
54.1000 38.515
54.1200 39.062
54.1400 38.376
54.1600 38.537
54.1800 39.092
54.2000 38.418
54.2200 38.815
54.2400 37.393
54.2600 39.652
54.2800 38.255
54.3000 37.649
54.3200 38.135
54.3400 37.815
54.3600 38.347
54.3800 37.774
54.4000 37.893
54.4200 38.703
54.4400 38.797
54.4600 38.968
54.4800 39.621
54.5000 38.481
54.5200 38.266
54.5400 38.461
54.5600 39.602
54.5800 39.459
54.6000 38.698
54.6200 39.040
54.6400 38.489
54.6600 38.592
54.6800 38.564
54.7000 38.350
54.7200 39.170
54.7400 37.912
54.7600 39.038
54.7800 38.422
54.8000 38.662
54.8200 38.295
54.8400 39.049
54.8600 38.381
54.8800 38.695
54.9000 38.326
54.9200 39.142
54.9400 38.798
54.9600 38.899
54.9800 38.732
55.0000 39.331
55.0200 39.463
55.0400 38.799
55.0600 39.425
55.0800 39.188
55.1000 39.046
55.1200 39.691
55.1400 38.720
55.1600 39.166
55.1800 39.056
55.2000 38.493
55.2200 39.533
55.2400 39.482
55.2600 39.691
55.2800 38.666
55.3000 39.449
55.3200 39.242
55.3400 39.158
55.3600 40.408
55.3800 38.557
55.4000 38.926
55.4200 38.672
55.4400 39.553
55.4600 39.597
55.4800 39.956
55.5000 39.466
55.5200 39.194
55.5400 38.659
55.5600 39.942
55.5800 39.036
55.6000 40.440
55.6200 39.330
55.6400 39.196
55.6600 38.648
55.6800 39.982
55.7000 39.442
55.7200 39.256
55.7400 40.216
55.7600 40.409
55.7800 40.591
55.8000 40.292
55.8200 39.761
55.8400 39.401
55.8600 40.281
55.8800 40.260
55.9000 39.194
55.9200 39.888
55.9400 39.148
55.9600 40.603
55.9800 40.320
56.0000 40.345
56.0200 40.739
56.0400 40.285
56.0600 39.867
56.0800 40.168
56.1000 40.758
56.1200 39.004
56.1400 40.460
56.1600 40.818
56.1800 40.725
56.2000 40.151
56.2200 40.595
56.2400 40.715
56.2600 40.596
56.2800 41.385
56.3000 40.970
56.3200 40.341
56.3400 41.535
56.3600 40.442
56.3800 41.003
56.4000 42.894
56.4200 41.220
56.4400 41.481
56.4600 41.155
56.4800 41.353
56.5000 40.781
56.5200 40.957
56.5400 40.711
56.5600 40.274
56.5800 41.199
56.6000 41.043
56.6200 41.063
56.6400 40.887
56.6600 41.554
56.6800 41.155
56.7000 40.915
56.7200 41.494
56.7400 41.090
56.7600 41.087
56.7800 42.059
56.8000 41.409
56.8200 41.077
56.8400 40.413
56.8600 41.713
56.8800 40.992
56.9000 40.693
56.9200 41.710
56.9400 40.559
56.9600 40.929
56.9800 41.557
57.0000 40.750
57.0200 40.445
57.0400 40.674
57.0600 40.866
57.0800 41.436
57.1000 41.745
57.1200 41.141
57.1400 39.913
57.1600 41.439
57.1800 40.187
57.2000 41.239
57.2200 40.892
57.2400 40.938
57.2600 40.294
57.2800 40.964
57.3000 41.171
57.3200 41.674
57.3400 42.371
57.3600 41.478
57.3800 41.495
57.4000 41.263
57.4200 40.616
57.4400 41.271
57.4600 42.238
57.4800 41.598
57.5000 41.500
57.5200 41.862
57.5400 41.182
57.5600 41.945
57.5800 41.785
57.6000 41.132
57.6200 43.287
57.6400 41.643
57.6600 42.464
57.6800 42.338
57.7000 41.169
57.7200 42.178
57.7400 42.543
57.7600 42.540
57.7800 41.629
57.8000 42.664
57.8200 42.156
57.8400 41.744
57.8600 42.171
57.8800 41.782
57.9000 42.934
57.9200 42.454
57.9400 42.633
57.9600 42.867
57.9800 43.581
58.0000 42.042
58.0200 42.499
58.0400 42.679
58.0600 43.291
58.0800 43.755
58.1000 44.479
58.1200 44.545
58.1400 44.161
58.1600 44.140
58.1800 44.255
58.2000 45.407
58.2200 45.891
58.2400 46.154
58.2600 46.238
58.2800 46.260
58.3000 46.659
58.3200 47.097
58.3400 47.434
58.3600 48.106
58.3800 47.602
58.4000 48.274
58.4200 49.007
58.4400 48.456
58.4600 49.279
58.4800 48.123
58.5000 49.592
58.5200 49.746
58.5400 50.185
58.5600 49.773
58.5800 50.119
58.6000 49.840
58.6200 50.827
58.6400 49.831
58.6600 49.931
58.6800 50.488
58.7000 49.590
58.7200 51.010
58.7400 50.384
58.7600 51.251
58.7800 50.019
58.8000 49.239
58.8200 50.542
58.8400 50.326
58.8600 50.019
58.8800 50.299
58.9000 49.724
58.9200 49.045
58.9400 49.666
58.9600 48.054
58.9800 49.634
59.0000 48.126
59.0200 47.022
59.0400 48.093
59.0600 47.903
59.0800 46.172
59.1000 45.505
59.1200 45.918
59.1400 45.340
59.1600 44.924
59.1800 45.097
59.2000 45.462
59.2200 45.451
59.2400 44.394
59.2600 44.071
59.2800 43.803
59.3000 42.691
59.3200 43.370
59.3400 44.145
59.3600 43.365
59.3800 43.645
59.4000 43.096
59.4200 43.168
59.4400 43.617
59.4600 42.963
59.4800 43.754
59.5000 42.329
59.5200 42.471
59.5400 43.802
59.5600 43.691
59.5800 43.670
59.6000 42.782
59.6200 43.823
59.6400 43.267
59.6600 43.469
59.6800 42.762
59.7000 42.074
59.7200 43.094
59.7400 42.738
59.7600 43.482
59.7800 43.001
59.8000 42.552
59.8200 43.009
59.8400 41.852
59.8600 42.162
59.8800 43.575
59.9000 43.294
59.9200 42.360
59.9400 43.251
59.9600 43.326
59.9800 42.418
60.0000 43.948
60.0200 43.910
60.0400 43.335
60.0600 43.090
60.0800 43.155
60.1000 43.262
60.1200 43.733
60.1400 43.719
60.1600 43.457
60.1800 43.413
60.2000 42.676
60.2200 43.037
60.2400 43.360
60.2600 43.438
60.2800 43.446
60.3000 43.716
60.3200 43.904
60.3400 42.564
60.3600 42.823
60.3800 43.066
60.4000 43.221
60.4200 44.438
60.4400 42.313
60.4600 42.508
60.4800 43.436
60.5000 43.897
60.5200 43.005
60.5400 44.347
60.5600 43.427
60.5800 43.621
60.6000 43.972
60.6200 43.785
60.6400 44.203
60.6600 43.881
60.6800 44.190
60.7000 44.290
60.7200 43.116
60.7400 42.898
60.7600 43.417
60.7800 42.609
60.8000 42.465
60.8200 43.225
60.8400 43.301
60.8600 43.552
60.8800 43.265
60.9000 43.715
60.9200 43.947
60.9400 42.950
60.9600 43.528
60.9800 44.523
61.0000 44.347
61.0200 43.892
61.0400 43.559
61.0600 43.072
61.0800 44.187
61.1000 43.650
61.1200 43.748
61.1400 44.002
61.1600 44.112
61.1800 43.094
61.2000 42.989
61.2200 43.962
61.2400 44.467
61.2600 43.837
61.2800 43.935
61.3000 43.767
61.3200 43.718
61.3400 42.946
61.3600 43.620
61.3800 44.098
61.4000 43.835
61.4200 45.262
61.4400 43.863
61.4600 43.865
61.4800 44.067
61.5000 44.298
61.5200 43.520
61.5400 43.104
61.5600 44.521
61.5800 45.113
61.6000 44.474
61.6200 43.212
61.6400 44.251
61.6600 44.430
61.6800 44.444
61.7000 44.659
61.7200 45.345
61.7400 44.910
61.7600 45.280
61.7800 44.950
61.8000 44.825
61.8200 45.154
61.8400 45.258
61.8600 46.161
61.8800 46.040
61.9000 45.232
61.9200 44.775
61.9400 46.723
61.9600 45.429
61.9800 44.606
62.0000 44.111
62.0200 45.205
62.0400 45.588
62.0600 44.667
62.0800 45.464
62.1000 45.227
62.1200 44.681
62.1400 45.216
62.1600 43.794
62.1800 43.689
62.2000 44.349
62.2200 44.753
62.2400 45.179
62.2600 44.792
62.2800 44.969
62.3000 45.045
62.3200 44.924
62.3400 46.059
62.3600 45.996
62.3800 45.201
62.4000 45.230
62.4200 44.736
62.4400 44.576
62.4600 44.989
62.4800 44.701
62.5000 46.203
62.5200 44.578
62.5400 44.235
62.5600 44.686
62.5800 45.369
62.6000 44.790
62.6200 45.071
62.6400 45.364
62.6600 45.952
62.6800 44.555
62.7000 45.001
62.7200 44.962
62.7400 44.132
62.7600 44.555
62.7800 44.848
62.8000 45.860
62.8200 45.273
62.8400 44.742
62.8600 44.527
62.8800 44.301
62.9000 44.941
62.9200 43.910
62.9400 44.707
62.9600 44.710
62.9800 44.482
63.0000 44.407
63.0200 44.092
63.0400 44.162
63.0600 45.580
63.0800 44.492
63.1000 45.559
63.1200 44.782
63.1400 45.543
63.1600 45.558
63.1800 46.081
63.2000 45.665
63.2200 45.018
63.2400 44.961
63.2600 43.765
63.2800 44.456
63.3000 45.239
63.3200 44.932
63.3400 45.229
63.3600 46.178
63.3800 44.619
63.4000 45.897
63.4200 44.990
63.4400 44.667
63.4600 46.760
63.4800 44.705
63.5000 45.276
63.5200 44.974
63.5400 45.450
63.5600 45.066
63.5800 44.952
63.6000 45.578
63.6200 45.618
63.6400 45.923
63.6600 45.339
63.6800 45.861
63.7000 45.862
63.7200 46.682
63.7400 46.254
63.7600 45.031
63.7800 45.756
63.8000 45.919
63.8200 45.772
63.8400 45.375
63.8600 46.884
63.8800 45.894
63.9000 46.432
63.9200 45.729
63.9400 46.555
63.9600 46.456
63.9800 46.963
64.0000 46.737
64.0200 47.071
64.0400 47.043
64.0600 47.509
64.0800 47.665
64.1000 47.846
64.1200 48.573
64.1400 48.016
64.1600 49.100
64.1800 49.631
64.2000 51.473
64.2200 52.012
64.2400 53.264
64.2600 52.910
64.2800 54.217
64.3000 54.438
64.3200 54.821
64.3400 54.700
64.3600 54.469
64.3800 55.044
64.4000 53.706
64.4200 54.693
64.4400 54.765
64.4600 53.036
64.4800 52.601
64.5000 52.037
64.5200 53.161
64.5400 51.892
64.5600 50.726
64.5800 50.846
64.6000 49.786
64.6200 49.292
64.6400 49.056
64.6600 49.115
64.6800 49.096
64.7000 47.365
64.7200 48.015
64.7400 47.981
64.7600 46.329
64.7800 45.969
64.8000 46.593
64.8200 46.563
64.8400 47.230
64.8600 46.604
64.8800 45.217
64.9000 45.393
64.9200 46.525
64.9400 46.513
64.9600 47.033
64.9800 46.977
65.0000 46.490
65.0200 46.300
65.0400 47.047
65.0600 46.217
65.0800 46.024
65.1000 46.972
65.1200 46.275
65.1400 46.011
65.1600 47.379
65.1800 47.131
65.2000 45.578
65.2200 44.618
65.2400 45.446
65.2600 47.423
65.2800 46.873
65.3000 47.387
65.3200 46.559
65.3400 46.442
65.3600 45.653
65.3800 46.159
65.4000 46.489
65.4200 46.836
65.4400 46.408
65.4600 46.766
65.4800 48.222
65.5000 46.062
65.5200 45.846
65.5400 46.197
65.5600 45.954
65.5800 47.557
65.6000 46.487
65.6200 45.783
65.6400 46.216
65.6600 45.765
65.6800 46.564
65.7000 46.439
65.7200 46.371
65.7400 46.658
65.7600 45.750
65.7800 46.318
65.8000 46.452
65.8200 46.522
65.8400 46.744
65.8600 46.465
65.8800 46.788
65.9000 47.397
65.9200 47.774
65.9400 47.070
65.9600 46.825
65.9800 46.664
66.0000 47.468
66.0200 47.319
66.0400 46.865
66.0600 47.374
66.0800 47.997
66.1000 46.478
66.1200 47.199
66.1400 47.890
66.1600 47.245
66.1800 46.883
66.2000 46.813
66.2200 46.595
66.2400 46.734
66.2600 46.781
66.2800 47.623
66.3000 46.819
66.3200 47.057
66.3400 47.304
66.3600 47.868
66.3800 47.775
66.4000 47.202
66.4200 47.196
66.4400 47.095
66.4600 46.709
66.4800 47.028
66.5000 46.543
66.5200 47.123
66.5400 47.687
66.5600 46.617
66.5800 46.479
66.6000 47.068
66.6200 47.651
66.6400 48.115
66.6600 47.928
66.6800 47.335
66.7000 47.747
66.7200 46.549
66.7400 47.968
66.7600 47.584
66.7800 47.224
66.8000 47.656
66.8200 47.264
66.8400 48.056
66.8600 48.482
66.8800 48.559
66.9000 47.449
66.9200 47.910
66.9400 48.260
66.9600 47.793
66.9800 48.191
67.0000 47.054
67.0200 47.922
67.0400 48.522
67.0600 49.566
67.0800 48.025
67.1000 47.574
67.1200 49.052
67.1400 49.619
67.1600 48.183
67.1800 48.504
67.2000 48.226
67.2200 48.108
67.2400 48.621
67.2600 47.967
67.2800 48.333
67.3000 48.913
67.3200 48.930
67.3400 48.361
67.3600 48.433
67.3800 49.337
67.4000 50.555
67.4200 49.900
67.4400 48.338
67.4600 49.111
67.4800 49.861
67.5000 49.430
67.5200 48.936
67.5400 49.428
67.5600 49.645
67.5800 49.447
67.6000 48.757
67.6200 49.355
67.6400 49.953
67.6600 49.227
67.6800 49.750
67.7000 50.167
67.7200 49.932
67.7400 49.194
67.7600 49.403
67.7800 49.132
67.8000 49.979
67.8200 48.962
67.8400 50.243
67.8600 50.114
67.8800 49.428
67.9000 49.774
67.9200 49.374
67.9400 49.483
67.9600 49.008
67.9800 47.983
68.0000 48.965
68.0200 48.495
68.0400 49.301
68.0600 49.938
68.0800 48.125
68.1000 47.566
68.1200 49.117
68.1400 48.395
68.1600 48.924
68.1800 49.148
68.2000 48.578
68.2200 48.608
68.2400 48.788
68.2600 48.906
68.2800 48.568
68.3000 49.358
68.3200 48.386
68.3400 48.963
68.3600 49.075
68.3800 47.065
68.4000 47.780
68.4200 48.464
68.4400 48.230
68.4600 47.001
68.4800 48.604
68.5000 48.851
68.5200 48.469
68.5400 48.982
68.5600 48.690
68.5800 48.915
68.6000 49.072
68.6200 48.189
68.6400 47.796
68.6600 47.580
68.6800 47.352
68.7000 47.735
68.7200 48.340
68.7400 47.415
68.7600 49.203
68.7800 48.901
68.8000 49.176
68.8200 48.101
68.8400 49.207
68.8600 48.179
68.8800 48.264
68.9000 49.471
68.9200 48.626
68.9400 48.541
68.9600 48.808
68.9800 48.751
69.0000 48.614
69.0200 49.014
69.0400 48.357
69.0600 48.514
69.0800 48.472
69.1000 48.935
69.1200 49.120
69.1400 49.465
69.1600 49.007
69.1800 48.959
69.2000 49.674
69.2200 48.990
69.2400 49.331
69.2600 49.166
69.2800 49.423
69.3000 48.943
69.3200 48.888
69.3400 49.785
69.3600 48.040
69.3800 48.845
69.4000 49.474
69.4200 48.904
69.4400 49.599
69.4600 49.258
69.4800 48.999
69.5000 48.162
69.5200 48.462
69.5400 49.403
69.5600 50.072
69.5800 49.304
69.6000 49.070
69.6200 48.271
69.6400 49.094
69.6600 49.516
69.6800 48.987
69.7000 49.437
69.7200 49.658
69.7400 49.232
69.7600 49.221
69.7800 49.134
69.8000 50.057
69.8200 48.607
69.8400 48.714
69.8600 48.988
69.8800 50.441
69.9000 49.051
69.9200 49.009
69.9400 49.636
69.9600 50.083
69.9800 49.644
70.0000 49.116
70.0200 49.624
70.0400 50.057
70.0600 50.301
70.0800 50.355
70.1000 50.908
70.1200 49.470
70.1400 49.838
70.1600 50.395
70.1800 49.769
70.2000 50.264
70.2200 48.756
70.2400 48.554
70.2600 48.851
70.2800 50.319
70.3000 49.018
70.3200 49.339
70.3400 50.479
70.3600 50.918
70.3800 49.279
70.4000 50.381
70.4200 49.588
70.4400 49.737
70.4600 50.687
70.4800 49.600
70.5000 50.079
70.5200 50.942
70.5400 50.185
70.5600 50.227
70.5800 51.125
70.6000 49.936
70.6200 49.603
70.6400 50.356
70.6600 49.373
70.6800 49.518
70.7000 49.223
70.7200 49.705
70.7400 49.991
70.7600 50.804
70.7800 51.037
70.8000 50.891
70.8200 48.886
70.8400 50.020
70.8600 49.852
70.8800 51.089
70.9000 50.494
70.9200 49.479
70.9400 50.848
70.9600 50.720
70.9800 51.427
71.0000 50.442
71.0200 50.502
71.0400 49.450
71.0600 50.696
71.0800 49.935
71.1000 50.533
71.1200 50.013
71.1400 51.243
71.1600 50.340
71.1800 50.304
71.2000 50.048
71.2200 51.012
71.2400 51.460
71.2600 51.375
71.2800 50.272
71.3000 50.288
71.3200 50.828
71.3400 51.078
71.3600 52.373
71.3800 51.445
71.4000 50.832
71.4200 51.118
71.4400 50.889
71.4600 51.641
71.4800 51.575
71.5000 51.301
71.5200 50.927
71.5400 51.616
71.5600 51.476
71.5800 51.284
71.6000 51.407
71.6200 51.206
71.6400 50.491
71.6600 51.290
71.6800 51.423
71.7000 49.918
71.7200 52.284
71.7400 50.596
71.7600 50.782
71.7800 50.777
71.8000 50.988
71.8200 50.919
71.8400 51.065
71.8600 50.856
71.8800 51.968
71.9000 52.015
71.9200 51.193
71.9400 51.592
71.9600 51.932
71.9800 51.685
72.0000 50.623
72.0200 50.488
72.0400 50.768
72.0600 51.073
72.0800 51.358
72.1000 51.275
72.1200 52.127
72.1400 51.187
72.1600 51.845
72.1800 50.571
72.2000 51.495
72.2200 51.675
72.2400 50.569
72.2600 51.516
72.2800 50.187
72.3000 51.140
72.3200 51.256
72.3400 51.930
72.3600 51.451
72.3800 51.639
72.4000 51.885
72.4200 51.917
72.4400 51.616
72.4600 51.749
72.4800 52.167
72.5000 52.741
72.5200 51.898
72.5400 52.021
72.5600 52.574
72.5800 51.713
72.6000 52.406
72.6200 51.061
72.6400 52.172
72.6600 52.037
72.6800 51.920
72.7000 51.799
72.7200 53.017
72.7400 52.369
72.7600 53.779
72.7800 51.750
72.8000 50.685
72.8200 51.857
72.8400 51.715
72.8600 51.758
72.8800 52.504
72.9000 50.574
72.9200 50.320
72.9400 52.825
72.9600 52.068
72.9800 52.541
73.0000 52.380
73.0200 50.064
73.0400 51.827
73.0600 51.586
73.0800 52.141
73.1000 52.604
73.1200 52.086
73.1400 52.931
73.1600 52.579
73.1800 52.206
73.2000 52.372
73.2200 52.271
73.2400 52.586
73.2600 52.701
73.2800 51.045
73.3000 50.787
73.3200 52.189
73.3400 53.286
73.3600 52.471
73.3800 53.217
73.4000 53.135
73.4200 53.907
73.4400 53.172
73.4600 53.203
73.4800 53.124
73.5000 53.282
73.5200 53.010
73.5400 52.567
73.5600 52.537
73.5800 53.216
73.6000 52.058
73.6200 52.008
73.6400 51.534
73.6600 51.558
73.6800 54.206
73.7000 53.702
73.7200 53.101
73.7400 52.198
73.7600 52.721
73.7800 52.198
73.8000 53.206
73.8200 52.721
73.8400 52.639
73.8600 52.788
73.8800 53.313
73.9000 53.620
73.9200 53.420
73.9400 52.769
73.9600 52.763
73.9800 52.502
74.0000 52.925
74.0200 52.197
74.0400 53.447
74.0600 53.881
74.0800 53.549
74.1000 52.857
74.1200 53.960
74.1400 52.751
74.1600 52.677
74.1800 53.364
74.2000 53.482
74.2200 52.717
74.2400 53.994
74.2600 53.589
74.2800 52.972
74.3000 53.113
74.3200 52.945
74.3400 53.353
74.3600 53.153
74.3800 53.676
74.4000 53.308
74.4200 53.784
74.4400 53.128
74.4600 53.281
74.4800 53.312
74.5000 52.653
74.5200 52.902
74.5400 52.972
74.5600 54.198
74.5800 54.474
74.6000 52.447
74.6200 53.415
74.6400 53.734
74.6600 52.924
74.6800 52.972
74.7000 54.460
74.7200 53.320
74.7400 53.919
74.7600 53.113
74.7800 54.114
74.8000 54.772
74.8200 54.627
74.8400 54.105
74.8600 54.124
74.8800 52.760
74.9000 52.499
74.9200 53.871
74.9400 55.334
74.9600 54.085
74.9800 54.583
75.0000 54.253
75.0200 53.594
75.0400 54.366
75.0600 53.585
75.0800 53.639
75.1000 54.448
75.1200 53.414
75.1400 53.614
75.1600 54.001
75.1800 53.762
75.2000 54.027
75.2200 53.612
75.2400 54.388
75.2600 53.426
75.2800 53.862
75.3000 54.340
75.3200 53.918
75.3400 53.862
75.3600 54.033
75.3800 54.134
75.4000 54.775
75.4200 53.681
75.4400 53.989
75.4600 53.896
75.4800 55.388
75.5000 54.062
75.5200 54.137
75.5400 54.260
75.5600 54.026
75.5800 53.408
75.6000 54.838
75.6200 55.131
75.6400 55.272
75.6600 54.280
75.6800 54.896
75.7000 54.224
75.7200 53.611
75.7400 54.931
75.7600 54.186
75.7800 54.649
75.8000 55.719
75.8200 55.357
75.8400 54.960
75.8600 55.231
75.8800 54.957
75.9000 54.794
75.9200 53.062
75.9400 54.616
75.9600 53.793
75.9800 53.954
76.0000 55.187
76.0200 54.568
76.0400 54.985
76.0600 54.460
76.0800 54.789
76.1000 54.401
76.1200 54.345
76.1400 55.390
76.1600 54.485
76.1800 54.234
76.2000 55.706
76.2200 55.493
76.2400 55.365
76.2600 55.452
76.2800 56.220
76.3000 54.670
76.3200 55.410
76.3400 55.143
76.3600 55.649
76.3800 54.487
76.4000 55.734
76.4200 55.704
76.4400 55.006
76.4600 55.802
76.4800 54.779
76.5000 55.965
76.5200 55.347
76.5400 55.266
76.5600 54.927
76.5800 54.799
76.6000 55.829
76.6200 56.216
76.6400 55.446
76.6600 56.479
76.6800 55.778
76.7000 54.867
76.7200 55.464
76.7400 55.423
76.7600 54.735
76.7800 55.548
76.8000 55.144
76.8200 54.736
76.8400 56.178
76.8600 55.847
76.8800 55.255
76.9000 55.558
76.9200 55.319
76.9400 55.139
76.9600 55.002
76.9800 55.419
77.0000 55.865
77.0200 56.046
77.0400 56.808
77.0600 55.941
77.0800 55.999
77.1000 55.873
77.1200 54.861
77.1400 56.117
77.1600 55.715
77.1800 54.852
77.2000 56.176
77.2200 56.112
77.2400 55.836
77.2600 55.073
77.2800 54.947
77.3000 55.833
77.3200 56.066
77.3400 57.834
77.3600 55.398
77.3800 56.106
77.4000 55.811
77.4200 55.660
77.4400 55.639
77.4600 56.564
77.4800 57.222
77.5000 56.081
77.5200 55.235
77.5400 55.326
77.5600 56.630
77.5800 56.274
77.6000 55.598
77.6200 56.733
77.6400 56.921
77.6600 55.805
77.6800 57.127
77.7000 56.020
77.7200 55.663
77.7400 55.821
77.7600 56.949
77.7800 56.161
77.8000 56.294
77.8200 56.446
77.8400 55.937
77.8600 55.810
77.8800 56.651
77.9000 56.277
77.9200 56.309
77.9400 56.703
77.9600 57.122
77.9800 56.207
78.0000 56.633
78.0200 56.599
78.0400 55.906
78.0600 56.209
78.0800 56.145
78.1000 55.890
78.1200 56.652
78.1400 57.187
78.1600 55.715
78.1800 57.105
78.2000 57.538
78.2200 56.603
78.2400 56.728
78.2600 57.568
78.2800 56.807
78.3000 56.605
78.3200 56.705
78.3400 56.474
78.3600 56.843
78.3800 56.754
78.4000 55.648
78.4200 56.836
78.4400 55.828
78.4600 56.945
78.4800 56.489
78.5000 57.734
78.5200 56.111
78.5400 56.653
78.5600 56.676
78.5800 57.794
78.6000 57.148
78.6200 57.536
78.6400 57.752
78.6600 57.999
78.6800 56.809
78.7000 56.930
78.7200 58.315
78.7400 57.730
78.7600 56.303
78.7800 56.953
78.8000 56.984
78.8200 57.477
78.8400 57.248
78.8600 57.763
78.8800 58.922
78.9000 57.974
78.9200 58.024
78.9400 57.642
78.9600 57.154
78.9800 57.106
79.0000 58.036
79.0200 57.637
79.0400 58.278
79.0600 58.226
79.0800 58.623
79.1000 57.983
79.1200 57.692
79.1400 57.197
79.1600 58.135
79.1800 58.374
79.2000 58.197
79.2200 57.244
79.2400 57.508
79.2600 56.631
79.2800 56.848
79.3000 57.490
79.3200 57.294
79.3400 58.851
79.3600 58.932
79.3800 58.038
79.4000 58.037
79.4200 57.649
79.4400 58.053
79.4600 57.235
79.4800 56.285
79.5000 59.369
79.5200 56.854
79.5400 58.690
79.5600 59.236
79.5800 58.276
79.6000 59.629
79.6200 58.501
79.6400 57.549
79.6600 58.755
79.6800 58.944
79.7000 58.742
79.7200 57.615
79.7400 57.884
79.7600 58.051
79.7800 57.967
79.8000 58.930
79.8200 58.000
79.8400 58.483
79.8600 58.163
79.8800 58.517
79.9000 59.401
79.9200 59.409
79.9400 58.140
79.9600 59.381
79.9800 58.479
80.0000 58.312
