'Id: "" Comment: "" Operator: "Lab Manager" Anode: "Cu" Scantype: "Coupled TwoTheta/Theta" TimePerStep: "113.4657" X: "9999" Y: "9999" Z: "-2.700037" 
20.0000 5.953
20.0200 5.906
20.0400 6.186
20.0600 6.437
20.0800 5.936
20.1000 6.467
20.1200 6.021
20.1400 6.276
20.1600 6.328
20.1800 6.458
20.2000 6.511
20.2200 6.259
20.2400 6.357
20.2600 6.307
20.2800 6.239
20.3000 6.327
20.3200 6.428
20.3400 6.336
20.3600 6.195
20.3800 6.401
20.4000 6.143
20.4200 6.981
20.4400 6.180
20.4600 6.244
20.4800 6.637
20.5000 6.502
20.5200 6.094
20.5400 6.363
20.5600 6.344
20.5800 6.579
20.6000 6.395
20.6200 6.556
20.6400 6.591
20.6600 6.324
20.6800 6.209
20.7000 6.244
20.7200 6.507
20.7400 6.919
20.7600 6.698
20.7800 6.736
20.8000 6.975
20.8200 7.151
20.8400 6.924
20.8600 6.847
20.8800 6.887
20.9000 6.914
20.9200 7.016
20.9400 7.111
20.9600 6.859
20.9800 6.490
21.0000 7.344
21.0200 6.687
21.0400 6.814
21.0600 6.948
21.0800 6.966
21.1000 7.182
21.1200 6.999
21.1400 7.058
21.1600 7.025
21.1800 7.478
21.2000 7.068
21.2200 6.995
21.2400 7.235
21.2600 7.471
21.2800 7.197
21.3000 7.276
21.3200 7.445
21.3400 7.227
21.3600 6.787
21.3800 7.418
21.4000 7.742
21.4200 7.527
21.4400 7.668
21.4600 7.544
21.4800 7.516
21.5000 7.765
21.5200 7.834
21.5400 7.690
21.5600 7.648
21.5800 7.587
21.6000 7.647
21.6200 7.586
21.6400 7.703
21.6600 7.639
21.6800 7.775
21.7000 7.697
21.7200 7.316
21.7400 7.647
21.7600 7.578
21.7800 8.059
21.8000 7.855
21.8200 8.036
21.8400 8.273
21.8600 8.167
21.8800 8.072
21.9000 7.595
21.9200 8.030
21.9400 7.885
21.9600 7.646
21.9800 7.983
22.0000 8.586
22.0200 7.452
22.0400 7.968
22.0600 7.675
22.0800 8.460
22.1000 7.969
22.1200 8.183
22.1400 8.153
22.1600 8.071
22.1800 8.537
22.2000 8.222
22.2200 8.098
22.2400 8.249
22.2600 8.190
22.2800 8.359
22.3000 8.160
22.3200 8.408
22.3400 8.592
22.3600 8.475
22.3800 8.512
22.4000 8.555
22.4200 8.631
22.4400 8.417
22.4600 8.586
22.4800 8.672
22.5000 8.868
22.5200 8.442
22.5400 8.929
22.5600 8.332
22.5800 8.583
22.6000 8.683
22.6200 8.568
22.6400 8.815
22.6600 8.674
22.6800 8.420
22.7000 8.381
22.7200 8.521
22.7400 8.993
22.7600 8.779
22.7800 8.747
22.8000 8.864
22.8200 8.804
22.8400 8.740
22.8600 8.718
22.8800 8.986
22.9000 8.735
22.9200 8.595
22.9400 8.954
22.9600 9.324
22.9800 9.117
23.0000 9.196
23.0200 8.730
23.0400 9.023
23.0600 9.785
23.0800 8.967
23.1000 9.523
23.1200 8.996
23.1400 9.338
23.1600 9.474
23.1800 9.144
23.2000 9.801
23.2200 9.461
23.2400 9.581
23.2600 9.060
23.2800 9.124
23.3000 9.367
23.3200 9.244
23.3400 9.300
23.3600 9.254
23.3800 9.524
23.4000 9.473
23.4200 9.968
23.4400 9.506
23.4600 10.023
23.4800 9.535
23.5000 9.599
23.5200 9.265
23.5400 9.358
23.5600 9.231
23.5800 9.366
23.6000 9.752
23.6200 9.668
23.6400 9.691
23.6600 9.672
23.6800 9.700
23.7000 10.235
23.7200 9.671
23.7400 9.865
23.7600 9.478
23.7800 9.627
23.8000 9.932
23.8200 9.572
23.8400 9.961
23.8600 10.042
23.8800 10.014
23.9000 10.105
23.9200 10.018
23.9400 9.604
23.9600 9.226
23.9800 10.094
24.0000 9.721
24.0200 10.463
24.0400 10.213
24.0600 10.366
24.0800 9.826
24.1000 9.878
24.1200 10.357
24.1400 10.069
24.1600 9.991
24.1800 10.361
24.2000 9.953
24.2200 10.262
24.2400 10.294
24.2600 10.096
24.2800 10.554
24.3000 10.108
24.3200 10.233
24.3400 10.768
24.3600 10.334
24.3800 10.883
24.4000 10.780
24.4200 10.826
24.4400 10.493
24.4600 10.398
24.4800 10.857
24.5000 11.071
24.5200 10.357
24.5400 10.642
24.5600 10.841
24.5800 10.874
24.6000 10.890
24.6200 10.641
24.6400 10.512
24.6600 10.898
24.6800 11.054
24.7000 10.806
24.7200 10.769
24.7400 10.721
24.7600 10.305
24.7800 11.109
24.8000 11.000
24.8200 10.882
24.8400 11.368
24.8600 10.978
24.8800 11.256
24.9000 11.018
24.9200 11.285
24.9400 11.121
24.9600 10.633
24.9800 11.044
25.0000 11.659
25.0200 11.438
25.0400 10.929
25.0600 11.356
25.0800 11.225
25.1000 11.383
25.1200 11.180
25.1400 10.722
25.1600 10.909
25.1800 11.596
25.2000 11.051
25.2200 10.852
25.2400 11.379
25.2600 11.036
25.2800 10.869
25.3000 11.106
25.3200 10.838
25.3400 11.368
25.3600 11.450
25.3800 11.380
25.4000 11.254
25.4200 11.348
25.4400 11.486
25.4600 11.593
25.4800 11.448
25.5000 11.237
25.5200 11.879
25.5400 11.658
25.5600 11.304
25.5800 11.339
25.6000 11.795
25.6200 11.664
25.6400 11.976
25.6600 11.415
25.6800 11.783
25.7000 11.969
25.7200 11.542
25.7400 12.074
25.7600 12.233
25.7800 12.097
25.8000 12.309
25.8200 11.876
25.8400 12.369
25.8600 11.945
25.8800 11.277
25.9000 11.769
25.9200 11.741
25.9400 11.799
25.9600 11.736
25.9800 11.877
26.0000 11.880
26.0200 12.035
26.0400 11.751
26.0600 12.218
26.0800 12.423
26.1000 11.803
26.1200 12.438
26.1400 12.246
26.1600 12.127
26.1800 12.370
26.2000 11.973
26.2200 12.350
26.2400 11.863
26.2600 12.126
26.2800 12.520
26.3000 12.598
26.3200 11.785
26.3400 11.732
26.3600 11.771
26.3800 12.234
26.4000 11.736
26.4200 12.374
26.4400 12.609
26.4600 12.023
26.4800 12.094
26.5000 12.635
26.5200 12.548
26.5400 12.093
26.5600 12.053
26.5800 12.708
26.6000 12.320
26.6200 12.119
26.6400 12.282
26.6600 12.693
26.6800 12.305
26.7000 12.546
26.7200 12.653
26.7400 12.670
26.7600 13.079
26.7800 12.851
26.8000 12.574
26.8200 12.422
26.8400 12.509
26.8600 12.583
26.8800 12.603
26.9000 12.835
26.9200 12.119
26.9400 12.944
26.9600 12.812
26.9800 13.210
27.0000 12.674
27.0200 12.784
27.0400 12.490
27.0600 13.022
27.0800 12.671
27.1000 12.926
27.1200 13.070
27.1400 12.311
27.1600 13.073
27.1800 12.764
27.2000 12.702
27.2200 12.755
27.2400 12.916
27.2600 13.222
27.2800 13.054
27.3000 13.225
27.3200 13.187
27.3400 13.530
27.3600 13.429
27.3800 12.560
27.4000 12.518
27.4200 13.005
27.4400 13.558
27.4600 13.045
27.4800 13.211
27.5000 13.738
27.5200 13.514
27.5400 13.174
27.5600 13.087
27.5800 12.998
27.6000 12.987
27.6200 12.696
27.6400 13.314
27.6600 13.580
27.6800 13.123
27.7000 13.311
27.7200 13.657
27.7400 13.268
27.7600 13.349
27.7800 12.880
27.8000 12.886
27.8200 13.168
27.8400 13.697
27.8600 13.200
27.8800 13.424
27.9000 13.976
27.9200 13.181
27.9400 13.467
27.9600 13.771
27.9800 13.766
28.0000 13.840
28.0200 13.817
28.0400 14.066
28.0600 13.536
28.0800 13.319
28.1000 14.056
28.1200 13.869
28.1400 13.293
28.1600 13.871
28.1800 13.935
28.2000 14.487
28.2200 13.420
28.2400 14.181
28.2600 13.670
28.2800 13.809
28.3000 13.768
28.3200 14.256
28.3400 14.016
28.3600 14.224
28.3800 13.524
28.4000 14.345
28.4200 13.953
28.4400 13.822
28.4600 13.509
28.4800 13.825
28.5000 13.678
28.5200 13.751
28.5400 14.035
28.5600 14.352
28.5800 13.732
28.6000 14.156
28.6200 14.319
28.6400 13.998
28.6600 13.596
28.6800 14.024
28.7000 14.141
28.7200 14.201
28.7400 15.005
28.7600 14.527
28.7800 14.055
28.8000 14.151
28.8200 14.415
28.8400 14.941
28.8600 14.346
28.8800 14.396
28.9000 14.257
28.9200 14.332
28.9400 14.484
28.9600 14.650
28.9800 14.816
29.0000 14.069
29.0200 14.224
29.0400 14.503
29.0600 14.802
29.0800 14.761
29.1000 14.664
29.1200 14.144
29.1400 14.557
29.1600 14.830
29.1800 14.192
29.2000 14.967
29.2200 14.345
29.2400 14.479
29.2600 14.763
29.2800 14.993
29.3000 14.880
29.3200 14.463
29.3400 15.538
29.3600 14.863
29.3800 15.068
29.4000 14.737
29.4200 15.496
29.4400 14.925
29.4600 14.887
29.4800 14.676
29.5000 15.759
29.5200 14.964
29.5400 15.279
29.5600 15.443
29.5800 15.611
29.6000 16.318
29.6200 16.196
29.6400 16.917
29.6600 16.053
29.6800 16.133
29.7000 16.558
29.7200 16.391
29.7400 16.645
29.7600 15.679
29.7800 15.820
29.8000 15.688
29.8200 15.309
29.8400 15.508
29.8600 15.449
29.8800 15.653
29.9000 15.551
29.9200 15.615
29.9400 15.480
29.9600 15.049
29.9800 14.947
30.0000 15.506
30.0200 15.457
30.0400 15.332
30.0600 15.343
30.0800 15.937
30.1000 15.293
30.1200 15.600
30.1400 15.525
30.1600 16.058
30.1800 15.968
30.2000 14.978
30.2200 15.618
30.2400 15.331
30.2600 15.707
30.2800 16.061
30.3000 15.834
30.3200 15.671
30.3400 15.557
30.3600 15.751
30.3800 15.492
30.4000 15.628
30.4200 15.594
30.4400 15.747
30.4600 15.095
30.4800 15.816
30.5000 16.172
30.5200 15.735
30.5400 15.770
30.5600 15.535
30.5800 15.721
30.6000 16.223
30.6200 16.303
30.6400 16.040
30.6600 15.882
30.6800 15.276
30.7000 15.771
30.7200 15.735
30.7400 16.427
30.7600 16.578
30.7800 15.579
30.8000 16.073
30.8200 15.773
30.8400 15.355
30.8600 15.975
30.8800 16.584
30.9000 16.282
30.9200 15.926
30.9400 16.379
30.9600 16.523
30.9800 15.953
31.0000 16.477
31.0200 15.967
31.0400 16.332
31.0600 16.091
31.0800 16.371
31.1000 16.444
31.1200 16.148
31.1400 16.954
31.1600 17.127
31.1800 16.934
31.2000 16.593
31.2200 16.463
31.2400 16.856
31.2600 16.735
31.2800 16.603
31.3000 17.166
31.3200 16.706
31.3400 16.316
31.3600 16.587
31.3800 16.569
31.4000 16.488
31.4200 16.252
31.4400 15.939
31.4600 17.435
31.4800 16.726
31.5000 16.287
31.5200 17.504
31.5400 17.215
31.5600 16.815
31.5800 16.817
31.6000 16.555
31.6200 16.630
31.6400 16.751
31.6600 16.844
31.6800 17.158
31.7000 16.851
31.7200 16.547
31.7400 16.639
31.7600 16.987
31.7800 16.669
31.8000 17.154
31.8200 17.296
31.8400 16.990
31.8600 17.137
31.8800 17.200
31.9000 17.347
31.9200 16.653
31.9400 17.352
31.9600 16.721
31.9800 17.830
32.0000 17.563
32.0200 17.418
32.0400 17.383
32.0600 17.041
32.0800 17.179
32.1000 17.669
32.1200 17.351
32.1400 17.401
32.1600 17.652
32.1800 17.886
32.2000 17.351
32.2200 17.278
32.2400 17.827
32.2600 17.382
32.2800 16.961
32.3000 17.116
32.3200 17.424
32.3400 17.548
32.3600 17.522
32.3800 17.695
32.4000 17.348
32.4200 17.779
32.4400 18.300
32.4600 17.849
32.4800 17.746
32.5000 17.446
32.5200 17.799
32.5400 18.086
32.5600 17.782
32.5800 17.413
32.6000 17.249
32.6200 18.204
32.6400 17.964
32.6600 17.657
32.6800 17.866
32.7000 17.931
32.7200 17.406
32.7400 18.123
32.7600 18.183
32.7800 18.319
32.8000 17.546
32.8200 18.496
32.8400 18.546
32.8600 18.463
32.8800 18.119
32.9000 17.052
32.9200 18.020
32.9400 18.022
32.9600 18.447
32.9800 17.746
33.0000 18.098
33.0200 18.746
33.0400 18.657
33.0600 18.520
33.0800 18.693
33.1000 17.790
33.1200 17.338
33.1400 18.038
33.1600 19.116
33.1800 18.408
33.2000 18.878
33.2200 18.626
33.2400 18.155
33.2600 18.597
33.2800 18.968
33.3000 18.569
33.3200 18.785
33.3400 18.672
33.3600 19.349
33.3800 19.052
33.4000 18.930
33.4200 19.340
33.4400 19.280
33.4600 18.944
33.4800 18.512
33.5000 18.975
33.5200 18.582
33.5400 18.920
33.5600 18.788
33.5800 19.749
33.6000 18.911
33.6200 18.707
33.6400 19.315
33.6600 18.923
33.6800 18.962
33.7000 19.046
33.7200 18.791
33.7400 18.995
33.7600 18.936
33.7800 18.702
33.8000 19.792
33.8200 19.817
33.8400 19.431
33.8600 19.555
33.8800 19.728
33.9000 19.615
33.9200 19.152
33.9400 19.214
33.9600 19.433
33.9800 20.469
34.0000 19.771
34.0200 19.859
34.0400 19.250
34.0600 19.899
34.0800 19.489
34.1000 19.727
34.1200 20.107
34.1400 19.399
34.1600 19.585
34.1800 19.364
34.2000 19.711
34.2200 19.959
34.2400 19.260
34.2600 19.396
34.2800 19.784
34.3000 19.609
34.3200 19.589
34.3400 19.656
34.3600 19.609
34.3800 19.322
34.4000 20.139
34.4200 19.847
34.4400 20.351
34.4600 19.554
34.4800 19.201
34.5000 19.509
34.5200 19.301
34.5400 20.298
34.5600 19.826
34.5800 20.446
34.6000 20.252
34.6200 20.476
34.6400 19.990
34.6600 21.036
34.6800 20.306
34.7000 20.626
34.7200 20.413
34.7400 20.329
34.7600 20.951
34.7800 20.740
34.8000 20.113
34.8200 20.917
34.8400 22.140
34.8600 22.415
34.8800 22.610
34.9000 22.814
34.9200 23.957
34.9400 23.662
34.9600 23.760
34.9800 23.227
35.0000 23.661
35.0200 23.800
35.0400 22.454
35.0600 23.112
35.0800 22.228
35.1000 21.826
35.1200 21.786
35.1400 21.409
35.1600 21.218
35.1800 21.461
35.2000 21.181
35.2200 21.305
35.2400 20.800
35.2600 20.832
35.2800 20.756
35.3000 21.071
35.3200 21.983
35.3400 20.863
35.3600 21.021
35.3800 20.816
35.4000 20.692
35.4200 20.736
35.4400 21.342
35.4600 21.296
35.4800 21.065
35.5000 21.640
35.5200 21.288
35.5400 21.323
35.5600 21.612
35.5800 20.718
35.6000 21.258
35.6200 21.282
35.6400 21.080
35.6600 21.335
35.6800 21.172
35.7000 21.957
35.7200 21.143
35.7400 21.206
35.7600 20.996
35.7800 21.252
35.8000 21.158
35.8200 21.143
35.8400 21.725
35.8600 21.726
35.8800 21.924
35.9000 21.729
35.9200 21.321
35.9400 22.093
35.9600 21.544
35.9800 21.385
36.0000 21.210
36.0200 21.299
36.0400 21.239
36.0600 22.216
36.0800 21.645
36.1000 21.520
36.1200 21.378
36.1400 21.344
36.1600 21.654
36.1800 21.619
36.2000 21.741
36.2200 21.051
36.2400 21.938
36.2600 21.106
36.2800 21.677
36.3000 22.233
36.3200 21.961
36.3400 21.495
36.3600 21.753
36.3800 21.906
36.4000 22.437
36.4200 22.286
36.4400 22.109
36.4600 22.230
36.4800 21.947
36.5000 22.226
36.5200 22.174
36.5400 22.548
36.5600 22.441
36.5800 22.503
36.6000 22.518
36.6200 22.211
36.6400 22.887
36.6600 21.942
36.6800 22.429
36.7000 22.483
36.7200 22.145
36.7400 22.895
36.7600 22.699
36.7800 23.286
36.8000 22.879
36.8200 22.658
36.8400 22.591
36.8600 23.178
36.8800 22.539
36.9000 22.610
36.9200 23.145
36.9400 22.796
36.9600 23.409
36.9800 23.698
37.0000 22.790
37.0200 22.722
37.0400 23.331
37.0600 22.967
37.0800 23.394
37.1000 23.284
37.1200 24.058
37.1400 23.582
37.1600 23.682
37.1800 23.604
37.2000 23.775
37.2200 24.372
37.2400 23.978
37.2600 23.623
37.2800 23.452
37.3000 23.997
37.3200 23.868
37.3400 24.108
37.3600 23.516
37.3800 23.363
37.4000 24.324
37.4200 24.498
37.4400 23.025
37.4600 23.674
37.4800 23.289
37.5000 23.975
37.5200 24.223
37.5400 24.552
37.5600 24.161
37.5800 24.487
37.6000 24.198
37.6200 24.146
37.6400 23.400
37.6600 23.624
37.6800 24.316
37.7000 24.219
37.7200 24.242
37.7400 24.048
37.7600 23.623
37.7800 24.483
37.8000 24.797
37.8200 24.705
37.8400 24.945
37.8600 24.400
37.8800 24.393
37.9000 25.041
37.9200 25.195
37.9400 24.654
37.9600 24.453
37.9800 24.878
38.0000 24.903
38.0200 24.441
38.0400 25.119
38.0600 24.678
38.0800 25.038
38.1000 25.327
38.1200 24.788
38.1400 24.749
38.1600 24.781
38.1800 25.018
38.2000 25.276
38.2200 24.744
38.2400 25.176
38.2600 25.068
38.2800 24.783
38.3000 25.273
38.3200 25.888
38.3400 25.075
38.3600 25.703
38.3800 25.154
38.4000 24.950
38.4200 25.765
38.4400 25.345
38.4600 25.403
38.4800 25.589
38.5000 25.571
38.5200 25.911
38.5400 25.337
38.5600 24.791
38.5800 25.173
38.6000 26.063
38.6200 25.742
38.6400 25.871
38.6600 25.748
38.6800 26.114
38.7000 25.602
38.7200 25.800
38.7400 25.808
38.7600 25.685
38.7800 25.638
38.8000 26.031
38.8200 26.164
38.8400 25.314
38.8600 25.448
38.8800 25.709
38.9000 25.535
38.9200 25.862
38.9400 25.801
38.9600 26.418
38.9800 25.257
39.0000 25.121
39.0200 26.345
39.0400 25.876
39.0600 26.557
39.0800 26.298
39.1000 26.759
39.1200 26.744
39.1400 25.923
39.1600 26.961
39.1800 26.965
39.2000 25.708
39.2200 25.996
39.2400 25.918
39.2600 26.138
39.2800 26.532
39.3000 26.307
39.3200 26.773
39.3400 26.451
39.3600 26.885
39.3800 26.823
39.4000 26.766
39.4200 27.245
39.4400 25.979
39.4600 26.831
39.4800 27.876
39.5000 26.654
39.5200 27.131
39.5400 27.500
39.5600 27.298
39.5800 26.320
39.6000 26.351
39.6200 26.678
39.6400 27.163
39.6600 26.370
39.6800 26.785
39.7000 27.078
39.7200 26.822
39.7400 26.638
39.7600 26.901
39.7800 27.003
39.8000 26.935
39.8200 27.308
39.8400 27.274
39.8600 27.143
39.8800 27.335
39.9000 27.695
39.9200 27.158
39.9400 28.276
39.9600 26.813
39.9800 27.574
40.0000 25.877
40.0200 26.731
40.0400 26.809
40.0600 27.467
40.0800 26.865
40.1000 27.104
40.1200 27.433
40.1400 27.286
40.1600 26.833
40.1800 26.742
40.2000 26.976
40.2200 27.246
40.2400 26.608
40.2600 26.554
40.2800 27.503
40.3000 28.086
40.3200 27.852
40.3400 28.079
40.3600 27.584
40.3800 27.489
40.4000 27.970
40.4200 28.344
40.4400 27.482
40.4600 27.424
40.4800 27.472
40.5000 27.215
40.5200 28.179
40.5400 28.164
40.5600 27.105
40.5800 27.187
40.6000 28.892
40.6200 27.940
40.6400 27.904
40.6600 28.070
40.6800 27.629
40.7000 27.464
40.7200 28.176
40.7400 27.902
40.7600 27.505
40.7800 28.347
40.8000 28.919
40.8200 28.504
40.8400 28.483
40.8600 27.771
40.8800 27.826
40.9000 27.539
40.9200 27.543
40.9400 27.901
40.9600 27.914
40.9800 28.602
41.0000 28.848
41.0200 28.000
41.0400 28.525
41.0600 28.861
41.0800 28.688
41.1000 28.282
41.1200 28.710
41.1400 28.519
41.1600 27.906
41.1800 28.659
41.2000 28.624
41.2200 28.232
41.2400 28.016
41.2600 29.071
41.2800 28.401
41.3000 28.406
41.3200 28.197
41.3400 28.190
41.3600 28.105
41.3800 28.438
41.4000 27.995
41.4200 27.985
41.4400 28.760
41.4600 28.220
41.4800 28.518
41.5000 28.785
41.5200 28.069
41.5400 29.215
41.5600 28.232
41.5800 28.855
41.6000 28.806
41.6200 28.879
41.6400 28.483
41.6600 28.446
41.6800 28.970
41.7000 29.276
41.7200 28.847
41.7400 29.676
41.7600 28.343
41.7800 29.090
41.8000 29.489
41.8200 28.880
41.8400 28.799
41.8600 28.561
41.8800 29.002
41.9000 29.653
41.9200 29.604
41.9400 28.320
41.9600 29.211
41.9800 29.262
42.0000 29.324
42.0200 29.049
42.0400 29.780
42.0600 29.106
42.0800 29.172
42.1000 29.414
42.1200 29.830
42.1400 29.389
42.1600 29.376
42.1800 29.962
42.2000 30.052
42.2200 29.646
42.2400 29.392
42.2600 30.379
42.2800 30.088
42.3000 30.056
42.3200 29.931
42.3400 29.775
42.3600 29.366
42.3800 30.096
42.4000 30.339
42.4200 31.664
42.4400 31.516
42.4600 32.273
42.4800 31.303
42.5000 31.974
42.5200 32.671
42.5400 32.286
42.5600 32.351
42.5800 32.219
42.6000 31.852
42.6200 31.963
42.6400 31.235
42.6600 31.259
42.6800 30.716
42.7000 30.438
42.7200 30.015
42.7400 29.997
42.7600 30.416
42.7800 31.036
42.8000 30.332
42.8200 29.979
42.8400 30.429
42.8600 29.633
42.8800 30.328
42.9000 29.182
42.9200 30.147
42.9400 30.186
42.9600 29.356
42.9800 29.865
43.0000 30.979
43.0200 30.502
43.0400 30.157
43.0600 30.016
43.0800 29.416
43.1000 30.129
43.1200 29.577
43.1400 30.148
43.1600 29.425
43.1800 29.280
43.2000 30.639
43.2200 30.697
43.2400 30.179
43.2600 29.883
43.2800 29.768
43.3000 31.061
43.3200 30.282
43.3400 30.937
43.3600 30.052
43.3800 30.200
43.4000 29.314
43.4200 30.477
43.4400 30.028
43.4600 30.249
43.4800 30.770
43.5000 30.260
43.5200 31.055
43.5400 31.121
43.5600 31.433
43.5800 31.517
43.6000 30.878
43.6200 31.071
43.6400 30.780
43.6600 31.154
43.6800 31.462
43.7000 31.388
43.7200 31.725
43.7400 31.120
43.7600 31.320
43.7800 31.970
43.8000 32.032
43.8200 30.977
43.8400 32.214
43.8600 32.512
43.8800 32.636
43.9000 31.921
43.9200 32.980
43.9400 34.583
43.9600 33.955
43.9800 35.431
44.0000 37.700
44.0200 39.987
44.0400 45.034
44.0600 50.570
44.0800 55.364
44.1000 57.565
44.1200 60.634
44.1400 59.595
44.1600 56.261
44.1800 54.630
44.2000 52.307
44.2200 50.530
44.2400 48.175
44.2600 46.368
44.2800 43.460
44.3000 40.026
44.3200 37.290
44.3400 36.246
44.3600 34.545
44.3800 32.841
44.4000 33.234
44.4200 32.778
44.4400 31.854
44.4600 32.822
44.4800 32.566
44.5000 31.849
44.5200 32.196
44.5400 32.295
44.5600 32.267
44.5800 31.070
44.6000 31.975
44.6200 31.502
44.6400 31.549
44.6600 32.930
44.6800 33.207
44.7000 33.791
44.7200 34.142
44.7400 36.024
44.7600 39.766
44.7800 42.633
44.8000 42.063
44.8200 40.166
44.8400 40.613
44.8600 41.661
44.8800 42.176
44.9000 43.942
44.9200 42.522
44.9400 42.196
44.9600 41.201
44.9800 41.565
45.0000 42.539
45.0200 40.930
45.0400 41.324
45.0600 41.607
45.0800 40.581
45.1000 41.261
45.1200 41.985
45.1400 40.589
45.1600 39.877
45.1800 39.503
45.2000 39.620
45.2200 38.921
45.2400 38.080
45.2600 38.315
45.2800 37.119
45.3000 35.391
45.3200 35.280
45.3400 35.315
45.3600 35.173
45.3800 35.556
45.4000 33.486
45.4200 34.181
45.4400 33.616
45.4600 33.017
45.4800 31.986
45.5000 32.470
45.5200 32.321
45.5400 32.233
45.5600 32.200
45.5800 30.892
45.6000 31.542
45.6200 31.903
45.6400 31.753
45.6600 31.518
45.6800 30.790
45.7000 31.520
45.7200 32.534
45.7400 31.691
45.7600 31.276
45.7800 31.420
45.8000 31.956
45.8200 31.889
45.8400 31.219
45.8600 31.607
45.8800 32.265
45.9000 31.586
45.9200 31.944
45.9400 31.392
45.9600 32.158
45.9800 32.076
46.0000 31.806
46.0200 31.788
46.0400 31.701
46.0600 32.524
46.0800 31.491
46.1000 31.449
46.1200 32.725
46.1400 31.697
46.1600 32.094
46.1800 31.735
46.2000 32.235
46.2200 32.682
46.2400 31.839
46.2600 32.414
46.2800 33.147
46.3000 32.193
46.3200 31.626
46.3400 31.321
46.3600 32.426
46.3800 32.420
46.4000 32.074
46.4200 32.420
46.4400 31.874
46.4600 31.097
46.4800 31.425
46.5000 32.196
46.5200 32.630
46.5400 32.315
46.5600 32.657
46.5800 33.166
46.6000 32.239
46.6200 32.587
46.6400 33.045
46.6600 32.660
46.6800 32.636
46.7000 32.286
46.7200 32.050
46.7400 32.401
46.7600 32.899
46.7800 32.617
46.8000 31.717
46.8200 31.942
46.8400 32.516
46.8600 32.646
46.8800 31.564
46.9000 32.378
46.9200 32.687
46.9400 32.228
46.9600 32.876
46.9800 32.926
47.0000 31.893
47.0200 32.106
47.0400 32.867
47.0600 33.517
47.0800 32.532
47.1000 32.225
47.1200 32.393
47.1400 32.336
47.1600 32.263
47.1800 32.010
47.2000 32.227
47.2200 33.122
47.2400 32.890
47.2600 33.288
47.2800 32.705
47.3000 33.262
47.3200 33.122
47.3400 32.734
47.3600 32.252
47.3800 33.631
47.4000 33.234
47.4200 32.389
47.4400 32.483
47.4600 32.827
47.4800 32.735
47.5000 33.049
47.5200 32.382
47.5400 32.853
47.5600 32.314
47.5800 32.695
47.6000 32.769
47.6200 33.857
47.6400 32.737
47.6600 33.315
47.6800 32.482
47.7000 32.634
47.7200 33.352
47.7400 33.927
47.7600 32.772
47.7800 33.254
47.8000 32.794
47.8200 32.823
47.8400 32.971
47.8600 33.110
47.8800 33.400
47.9000 32.941
47.9200 33.719
47.9400 33.093
47.9600 34.122
47.9800 33.779
48.0000 33.152
48.0200 33.224
48.0400 34.219
48.0600 33.220
48.0800 32.486
48.1000 33.747
48.1200 33.049
48.1400 32.658
48.1600 33.928
48.1800 32.883
48.2000 33.145
48.2200 33.639
48.2400 32.951
48.2600 32.596
48.2800 33.290
48.3000 33.783
48.3200 33.772
48.3400 34.104
48.3600 34.115
48.3800 34.631
48.4000 34.021
48.4200 33.411
48.4400 33.574
48.4600 32.859
48.4800 33.500
48.5000 33.861
48.5200 33.956
48.5400 33.519
48.5600 33.959
48.5800 34.202
48.6000 34.134
48.6200 33.305
48.6400 33.867
48.6600 34.213
48.6800 34.127
48.7000 33.260
48.7200 33.848
48.7400 33.584
48.7600 34.264
48.7800 33.716
48.8000 34.242
48.8200 33.062
48.8400 33.746
48.8600 34.529
48.8800 33.279
48.9000 34.146
48.9200 34.154
48.9400 34.250
48.9600 34.437
48.9800 34.764
49.0000 33.251
49.0200 34.416
49.0400 33.934
49.0600 33.773
49.0800 33.555
49.1000 34.815
49.1200 34.160
49.1400 34.697
49.1600 34.425
49.1800 34.837
49.2000 33.850
49.2200 33.777
49.2400 33.817
49.2600 33.663
49.2800 34.045
49.3000 34.298
49.3200 34.486
49.3400 35.810
49.3600 34.035
49.3800 33.677
49.4000 33.719
49.4200 34.972
49.4400 35.523
49.4600 34.247
49.4800 34.020
49.5000 34.641
49.5200 35.196
49.5400 34.417
49.5600 34.624
49.5800 34.675
49.6000 34.524
49.6200 34.658
49.6400 34.412
49.6600 34.826
49.6800 34.717
49.7000 34.987
49.7200 34.770
49.7400 34.685
49.7600 35.343
49.7800 33.892
49.8000 34.388
49.8200 34.333
49.8400 34.867
49.8600 34.421
49.8800 34.397
49.9000 34.853
49.9200 34.330
49.9400 35.312
49.9600 34.512
49.9800 35.731
50.0000 34.376
50.0200 34.946
50.0400 34.906
50.0600 34.306
50.0800 34.577
50.1000 34.680
50.1200 34.687
50.1400 34.688
50.1600 34.562
50.1800 34.733
50.2000 34.689
50.2200 35.355
50.2400 35.556
50.2600 35.969
50.2800 35.120
50.3000 34.498
50.3200 35.777
50.3400 35.584
50.3600 34.801
50.3800 35.789
50.4000 35.593
50.4200 36.394
50.4400 36.035
50.4600 35.099
50.4800 34.848
50.5000 36.242
50.5200 35.631
50.5400 35.610
50.5600 36.131
50.5800 35.986
50.6000 35.190
50.6200 35.130
50.6400 35.844
50.6600 35.555
50.6800 36.016
50.7000 35.495
50.7200 35.620
50.7400 35.990
50.7600 36.373
50.7800 36.173
50.8000 35.806
50.8200 35.444
50.8400 34.678
50.8600 36.398
50.8800 35.742
50.9000 35.122
50.9200 36.419
50.9400 36.626
50.9600 35.904
50.9800 35.593
51.0000 35.913
51.0200 37.194
51.0400 35.936
51.0600 34.280
51.0800 35.782
51.1000 34.883
51.1200 35.601
51.1400 36.632
51.1600 35.930
51.1800 35.921
51.2000 35.903
51.2200 35.202
51.2400 36.672
51.2600 36.010
51.2800 36.196
51.3000 37.136
51.3200 36.649
51.3400 37.408
51.3600 36.828
51.3800 36.746
51.4000 36.581
51.4200 36.851
51.4400 36.619
51.4600 36.599
51.4800 36.420
51.5000 36.541
51.5200 36.360
51.5400 36.321
51.5600 36.822
51.5800 36.890
51.6000 36.039
51.6200 36.384
51.6400 37.536
51.6600 37.221
51.6800 37.286
51.7000 37.320
51.7200 36.983
51.7400 36.523
51.7600 37.261
51.7800 37.308
51.8000 37.146
51.8200 37.470
51.8400 36.371
51.8600 36.490
51.8800 37.416
51.9000 37.413
51.9200 36.462
51.9400 36.477
51.9600 37.664
51.9800 38.035
52.0000 37.310
52.0200 36.853
52.0400 37.500
52.0600 36.130
52.0800 37.188
52.1000 36.475
52.1200 36.696
52.1400 37.227
52.1600 37.065
52.1800 37.659
52.2000 37.427
52.2200 37.165
52.2400 37.437
52.2600 36.056
52.2800 36.663
52.3000 35.934
52.3200 37.057
52.3400 36.809
52.3600 36.646
52.3800 36.599
52.4000 36.841
52.4200 36.680
52.4400 36.395
52.4600 36.681
52.4800 37.635
52.5000 36.618
52.5200 38.295
52.5400 37.684
52.5600 36.973
52.5800 37.117
52.6000 37.525
52.6200 38.011
52.6400 37.760
52.6600 38.272
52.6800 37.388
52.7000 37.734
52.7200 38.249
52.7400 37.962
52.7600 37.537
52.7800 38.578
52.8000 38.352
52.8200 37.106
52.8400 37.657
52.8600 37.078
52.8800 37.216
52.9000 37.818
52.9200 37.703
52.9400 37.565
52.9600 37.423
52.9800 37.381
53.0000 37.555
53.0200 37.352
53.0400 37.716
53.0600 37.995
53.0800 37.821
53.1000 37.228
53.1200 37.188
53.1400 38.008
53.1600 38.287
53.1800 38.018
53.2000 37.047
53.2200 38.034
53.2400 37.888
53.2600 37.859
53.2800 38.531
53.3000 37.407
53.3200 37.617
53.3400 37.646
53.3600 37.466
53.3800 37.165
53.4000 37.830
53.4200 36.971
53.4400 37.552
53.4600 37.328
53.4800 37.853
53.5000 38.158
53.5200 37.967
53.5400 37.294
53.5600 37.986
53.5800 37.249
53.6000 37.246
53.6200 37.546
53.6400 37.860
53.6600 37.329
53.6800 38.301
53.7000 37.431
53.7200 38.127
53.7400 37.911
53.7600 39.240
53.7800 39.082
53.8000 38.535
53.8200 37.569
53.8400 37.980
53.8600 37.649
53.8800 37.986
53.9000 38.781
53.9200 38.364
53.9400 37.949
53.9600 39.485
53.9800 38.709
54.0000 38.278
54.0200 37.887
54.0400 38.844
54.0600 38.659
54.0800 38.399
54.1000 38.204
54.1200 38.004
54.1400 38.163
54.1600 37.834
54.1800 38.162
54.2000 36.865
54.2200 38.167
54.2400 38.749
54.2600 39.383
54.2800 38.304
54.3000 38.375
54.3200 38.346
54.3400 38.531
54.3600 38.044
54.3800 38.146
54.4000 37.915
54.4200 38.847
54.4400 38.841
54.4600 38.939
54.4800 37.711
54.5000 38.675
54.5200 37.557
54.5400 37.979
54.5600 38.050
54.5800 38.557
54.6000 39.101
54.6200 38.270
54.6400 37.973
54.6600 37.873
54.6800 38.264
54.7000 39.490
54.7200 39.764
54.7400 38.249
54.7600 37.607
54.7800 37.779
54.8000 38.887
54.8200 38.525
54.8400 37.873
54.8600 38.065
54.8800 37.837
54.9000 38.615
54.9200 38.878
54.9400 38.898
54.9600 38.297
54.9800 39.055
55.0000 39.028
55.0200 37.968
55.0400 38.268
55.0600 38.234
55.0800 38.328
55.1000 39.369
55.1200 39.792
55.1400 39.112
55.1600 38.054
55.1800 38.829
55.2000 38.983
55.2200 38.885
55.2400 38.861
55.2600 39.023
55.2800 39.680
55.3000 39.540
55.3200 38.900
55.3400 39.311
55.3600 38.904
55.3800 38.997
55.4000 38.242
55.4200 38.984
55.4400 39.270
55.4600 39.720
55.4800 39.614
55.5000 38.929
55.5200 39.204
55.5400 40.115
55.5600 39.429
55.5800 38.987
55.6000 39.120
55.6200 38.775
55.6400 39.349
55.6600 38.877
55.6800 39.219
55.7000 39.359
55.7200 38.636
55.7400 38.942
55.7600 39.682
55.7800 39.340
55.8000 38.933
55.8200 39.305
55.8400 39.446
55.8600 39.294
55.8800 38.483
55.9000 40.780
55.9200 40.363
55.9400 39.338
55.9600 39.341
55.9800 39.344
56.0000 39.643
56.0200 39.816
56.0400 39.168
56.0600 39.434
56.0800 40.022
56.1000 39.876
56.1200 39.923
56.1400 40.377
56.1600 40.721
56.1800 39.803
56.2000 40.481
56.2200 40.770
56.2400 40.719
56.2600 40.304
56.2800 41.469
56.3000 40.951
56.3200 41.516
56.3400 41.391
56.3600 41.237
56.3800 40.912
56.4000 41.151
56.4200 40.800
56.4400 40.861
56.4600 41.502
56.4800 40.953
56.5000 39.898
56.5200 41.024
56.5400 40.930
56.5600 40.438
56.5800 40.173
56.6000 40.451
56.6200 41.381
56.6400 40.533
56.6600 40.886
56.6800 40.455
56.7000 39.860
56.7200 40.465
56.7400 40.907
56.7600 40.867
56.7800 41.171
56.8000 41.057
56.8200 40.877
56.8400 40.627
56.8600 41.447
56.8800 40.075
56.9000 39.941
56.9200 40.548
56.9400 39.857
56.9600 40.265
56.9800 41.070
57.0000 40.580
57.0200 40.926
57.0400 39.919
57.0600 40.557
57.0800 40.731
57.1000 40.474
57.1200 40.276
57.1400 41.293
57.1600 40.896
57.1800 41.404
57.2000 41.323
57.2200 41.696
57.2400 41.543
57.2600 41.756
57.2800 40.841
57.3000 40.499
57.3200 40.860
57.3400 40.856
57.3600 40.887
57.3800 40.362
57.4000 41.112
57.4200 41.593
57.4400 40.476
57.4600 40.713
57.4800 41.243
57.5000 41.251
57.5200 41.052
57.5400 41.745
57.5600 41.583
57.5800 41.592
57.6000 41.333
57.6200 41.636
57.6400 40.988
57.6600 41.977
57.6800 41.921
57.7000 40.675
57.7200 41.765
57.7400 41.829
57.7600 41.019
57.7800 42.023
57.8000 42.173
57.8200 41.592
57.8400 41.662
57.8600 42.341
57.8800 42.770
57.9000 43.220
57.9200 41.840
57.9400 42.772
57.9600 43.146
57.9800 41.606
58.0000 41.685
58.0200 42.284
58.0400 43.548
58.0600 42.219
58.0800 43.396
58.1000 43.437
58.1200 43.984
58.1400 44.723
58.1600 44.503
58.1800 45.751
58.2000 44.530
58.2200 44.622
58.2400 45.211
58.2600 46.190
58.2800 46.311
58.3000 45.237
58.3200 47.273
58.3400 46.523
58.3600 47.873
58.3800 48.855
58.4000 49.330
58.4200 48.997
58.4400 48.920
58.4600 49.230
58.4800 50.008
58.5000 49.351
58.5200 50.117
58.5400 49.712
58.5600 49.409
58.5800 49.196
58.6000 49.024
58.6200 50.340
58.6400 49.710
58.6600 50.260
58.6800 50.525
58.7000 50.592
58.7200 49.225
58.7400 50.553
58.7600 50.119
58.7800 50.081
58.8000 50.201
58.8200 50.859
58.8400 49.669
58.8600 49.525
58.8800 49.939
58.9000 48.705
58.9200 49.600
58.9400 49.395
58.9600 49.292
58.9800 48.226
59.0000 48.449
59.0200 46.590
59.0400 47.101
59.0600 46.311
59.0800 45.872
59.1000 46.038
59.1200 46.093
59.1400 45.939
59.1600 44.588
59.1800 45.338
59.2000 44.118
59.2200 44.165
59.2400 44.774
59.2600 44.011
59.2800 43.335
59.3000 43.213
59.3200 42.658
59.3400 43.483
59.3600 43.267
59.3800 43.653
59.4000 42.523
59.4200 42.817
59.4400 44.036
59.4600 42.794
59.4800 43.694
59.5000 42.023
59.5200 42.588
59.5400 42.609
59.5600 42.613
59.5800 42.817
59.6000 43.222
59.6200 42.214
59.6400 43.112
59.6600 41.846
59.6800 42.779
59.7000 43.374
59.7200 42.465
59.7400 43.273
59.7600 43.314
59.7800 42.490
59.8000 42.125
59.8200 43.431
59.8400 43.879
59.8600 42.788
59.8800 43.267
59.9000 42.798
59.9200 43.172
59.9400 43.135
59.9600 42.668
59.9800 42.244
60.0000 43.002
60.0200 43.123
60.0400 42.962
60.0600 43.007
60.0800 42.697
60.1000 43.703
60.1200 43.474
60.1400 41.380
60.1600 42.769
60.1800 42.365
60.2000 42.189
60.2200 42.478
60.2400 43.297
60.2600 43.401
60.2800 42.967
60.3000 42.731
60.3200 43.106
60.3400 43.442
60.3600 43.708
60.3800 42.394
60.4000 43.321
60.4200 42.575
60.4400 42.440
60.4600 42.811
60.4800 42.187
60.5000 43.223
60.5200 44.260
60.5400 42.905
60.5600 43.514
60.5800 43.691
60.6000 43.315
60.6200 43.587
60.6400 42.313
60.6600 43.390
60.6800 43.617
60.7000 43.060
60.7200 43.087
60.7400 43.232
60.7600 43.448
60.7800 42.895
60.8000 43.296
60.8200 43.018
60.8400 44.050
60.8600 43.433
60.8800 42.694
60.9000 43.097
60.9200 44.581
60.9400 44.519
60.9600 42.624
60.9800 43.075
61.0000 42.500
61.0200 43.651
61.0400 43.985
61.0600 43.288
61.0800 42.567
61.1000 42.279
61.1200 43.696
61.1400 43.228
61.1600 42.798
61.1800 42.270
61.2000 43.892
61.2200 43.608
61.2400 44.266
61.2600 43.200
61.2800 43.508
61.3000 44.356
61.3200 42.965
61.3400 42.637
61.3600 43.227
61.3800 43.605
61.4000 43.037
61.4200 43.294
61.4400 44.108
61.4600 44.313
61.4800 43.042
61.5000 43.811
61.5200 43.469
61.5400 43.472
61.5600 43.223
61.5800 42.858
61.6000 43.157
61.6200 43.555
61.6400 43.880
61.6600 44.805
61.6800 44.296
61.7000 44.939
61.7200 45.210
61.7400 44.792
61.7600 44.677
61.7800 45.203
61.8000 45.775
61.8200 45.918
61.8400 45.330
61.8600 45.218
61.8800 45.454
61.9000 45.788
61.9200 45.454
61.9400 46.303
61.9600 45.386
61.9800 45.493
62.0000 45.903
62.0200 45.234
62.0400 45.381
62.0600 45.152
62.0800 45.843
62.1000 44.109
62.1200 43.742
62.1400 45.716
62.1600 44.368
62.1800 43.978
62.2000 44.096
62.2200 44.492
62.2400 45.060
62.2600 44.506
62.2800 44.883
62.3000 43.990
62.3200 44.312
62.3400 44.479
62.3600 44.701
62.3800 44.776
62.4000 44.095
62.4200 44.106
62.4400 43.950
62.4600 44.950
62.4800 44.333
62.5000 43.631
62.5200 44.623
62.5400 44.464
62.5600 44.482
62.5800 44.596
62.6000 45.557
62.6200 44.415
62.6400 44.230
62.6600 44.360
62.6800 44.454
62.7000 44.401
62.7200 44.536
62.7400 44.879
62.7600 45.128
62.7800 44.603
62.8000 44.586
62.8200 43.421
62.8400 44.216
62.8600 44.775
62.8800 44.383
62.9000 44.235
62.9200 45.071
62.9400 45.410
62.9600 44.898
62.9800 44.386
63.0000 44.348
63.0200 43.985
63.0400 44.206
63.0600 43.936
63.0800 43.531
63.1000 44.263
63.1200 44.669
63.1400 45.319
63.1600 44.821
63.1800 44.572
63.2000 44.108
63.2200 45.053
63.2400 44.514
63.2600 45.169
63.2800 45.066
63.3000 45.536
63.3200 44.969
63.3400 44.577
63.3600 45.276
63.3800 45.752
63.4000 45.002
63.4200 44.164
63.4400 44.872
63.4600 44.006
63.4800 45.769
63.5000 44.861
63.5200 45.074
63.5400 45.160
63.5600 46.291
63.5800 45.447
63.6000 45.097
63.6200 45.395
63.6400 44.868
63.6600 45.004
63.6800 44.777
63.7000 44.462
63.7200 45.090
63.7400 46.009
63.7600 45.242
63.7800 45.188
63.8000 45.938
63.8200 45.383
63.8400 44.577
63.8600 45.849
63.8800 45.330
63.9000 45.319
63.9200 45.399
63.9400 45.563
63.9600 46.658
63.9800 45.444
64.0000 46.268
64.0200 46.761
64.0400 47.243
64.0600 46.635
64.0800 48.920
64.1000 48.096
64.1200 48.973
64.1400 48.466
64.1600 48.406
64.1800 50.050
64.2000 50.232
64.2200 50.552
64.2400 51.628
64.2600 51.892
64.2800 52.997
64.3000 53.643
64.3200 52.720
64.3400 54.741
64.3600 54.782
64.3800 54.407
64.4000 52.880
64.4200 52.871
64.4400 52.168
64.4600 52.973
64.4800 52.060
64.5000 51.510
64.5200 51.957
64.5400 50.727
64.5600 50.747
64.5800 49.609
64.6000 47.976
64.6200 47.313
64.6400 47.662
64.6600 48.500
64.6800 47.217
64.7000 46.627
64.7200 46.682
64.7400 46.433
64.7600 46.062
64.7800 46.294
64.8000 46.583
64.8200 46.557
64.8400 46.353
64.8600 45.400
64.8800 45.256
64.9000 46.346
64.9200 45.428
64.9400 45.266
64.9600 45.208
64.9800 45.344
65.0000 46.158
65.0200 46.075
65.0400 46.015
65.0600 47.494
65.0800 46.452
65.1000 46.171
65.1200 45.695
65.1400 46.523
65.1600 45.918
65.1800 46.452
65.2000 46.287
65.2200 46.169
65.2400 45.424
65.2600 45.514
65.2800 46.133
65.3000 44.940
65.3200 46.229
65.3400 46.076
65.3600 46.222
65.3800 46.912
65.4000 45.767
65.4200 46.873
65.4400 47.096
65.4600 46.600
65.4800 46.776
65.5000 45.681
65.5200 45.689
65.5400 46.519
65.5600 46.037
65.5800 45.494
65.6000 46.486
65.6200 46.375
65.6400 45.851
65.6600 46.438
65.6800 47.118
65.7000 47.541
65.7200 46.293
65.7400 46.863
65.7600 47.165
65.7800 46.624
65.8000 45.909
65.8200 46.531
65.8400 46.629
65.8600 47.234
65.8800 47.321
65.9000 47.033
65.9200 46.445
65.9400 46.743
65.9600 46.813
65.9800 45.936
66.0000 46.687
66.0200 47.203
66.0400 47.316
66.0600 47.372
66.0800 46.023
66.1000 46.235
66.1200 46.749
66.1400 46.424
66.1600 47.826
66.1800 48.110
66.2000 47.334
66.2200 46.836
66.2400 48.104
66.2600 47.402
66.2800 46.973
66.3000 45.603
66.3200 46.760
66.3400 47.595
66.3600 47.112
66.3800 46.718
66.4000 46.662
66.4200 46.874
66.4400 46.823
66.4600 47.116
66.4800 46.949
66.5000 47.089
66.5200 47.130
66.5400 46.582
66.5600 47.091
66.5800 47.139
66.6000 45.744
66.6200 48.438
66.6400 47.894
66.6600 48.077
66.6800 47.008
66.7000 46.922
66.7200 46.705
66.7400 46.794
66.7600 46.989
66.7800 47.952
66.8000 46.881
66.8200 46.611
66.8400 48.429
66.8600 47.302
66.8800 47.765
66.9000 47.269
66.9200 46.595
66.9400 47.251
66.9600 46.511
66.9800 47.556
67.0000 47.463
67.0200 46.756
67.0400 47.242
67.0600 47.735
67.0800 48.202
67.1000 48.139
67.1200 47.251
67.1400 47.924
67.1600 48.029
67.1800 48.562
67.2000 47.751
67.2200 48.759
67.2400 48.851
67.2600 48.751
67.2800 48.231
67.3000 47.614
67.3200 48.245
67.3400 49.030
67.3600 48.516
67.3800 48.760
67.4000 49.332
67.4200 47.691
67.4400 49.339
67.4600 49.620
67.4800 49.080
67.5000 48.490
67.5200 49.162
67.5400 49.450
67.5600 49.623
67.5800 50.227
67.6000 49.176
67.6200 50.120
67.6400 48.169
67.6600 48.619
67.6800 50.064
67.7000 50.089
67.7200 49.637
67.7400 49.059
67.7600 49.070
67.7800 49.631
67.8000 49.840
67.8200 48.707
67.8400 49.580
67.8600 48.312
67.8800 47.914
67.9000 47.910
67.9200 48.927
67.9400 48.589
67.9600 48.556
67.9800 48.576
68.0000 49.046
68.0200 48.707
68.0400 48.889
68.0600 48.522
68.0800 47.753
68.1000 48.422
68.1200 48.332
68.1400 48.032
68.1600 48.194
68.1800 48.512
68.2000 48.088
68.2200 47.991
68.2400 48.323
68.2600 48.534
68.2800 48.197
68.3000 48.792
68.3200 47.989
68.3400 48.655
68.3600 48.661
68.3800 48.301
68.4000 48.486
68.4200 47.929
68.4400 47.287
68.4600 48.318
68.4800 48.254
68.5000 47.590
68.5200 47.631
68.5400 48.092
68.5600 48.661
68.5800 48.769
68.6000 47.972
68.6200 48.705
68.6400 48.225
68.6600 47.304
68.6800 48.677
68.7000 47.775
68.7200 48.652
68.7400 48.265
68.7600 48.025
68.7800 48.696
68.8000 48.540
68.8200 47.545
68.8400 48.996
68.8600 48.930
68.8800 48.236
68.9000 48.015
68.9200 48.350
68.9400 48.086
68.9600 47.095
68.9800 48.305
69.0000 48.402
69.0200 48.580
69.0400 48.608
69.0600 49.081
69.0800 47.527
69.1000 47.502
69.1200 48.767
69.1400 48.115
69.1600 49.021
69.1800 48.882
69.2000 48.429
69.2200 48.242
69.2400 48.975
69.2600 48.267
69.2800 48.817
69.3000 48.310
69.3200 48.746
69.3400 48.206
69.3600 47.660
69.3800 48.925
69.4000 48.597
69.4200 49.908
69.4400 48.354
69.4600 50.384
69.4800 49.810
69.5000 48.886
69.5200 49.151
69.5400 49.139
69.5600 48.158
69.5800 48.690
69.6000 48.914
69.6200 48.921
69.6400 48.621
69.6600 48.497
69.6800 48.839
69.7000 49.698
69.7200 49.146
69.7400 49.286
69.7600 49.155
69.7800 48.421
69.8000 49.089
69.8200 49.395
69.8400 50.002
69.8600 49.332
69.8800 49.875
69.9000 51.119
69.9200 49.466
69.9400 49.739
69.9600 49.204
69.9800 49.217
70.0000 49.128
70.0200 49.902
70.0400 49.185
70.0600 49.384
70.0800 48.993
70.1000 48.817
70.1200 49.529
70.1400 49.830
70.1600 50.174
70.1800 50.628
70.2000 49.606
70.2200 48.816
70.2400 49.761
70.2600 48.806
70.2800 49.803
70.3000 49.093
70.3200 48.710
70.3400 49.441
70.3600 48.719
70.3800 49.358
70.4000 50.141
70.4200 49.606
70.4400 49.014
70.4600 48.874
70.4800 49.219
70.5000 50.439
70.5200 49.300
70.5400 49.210
70.5600 49.105
70.5800 50.661
70.6000 49.580
70.6200 49.607
70.6400 49.681
70.6600 50.720
70.6800 50.610
70.7000 50.234
70.7200 49.602
70.7400 48.020
70.7600 50.606
70.7800 49.324
70.8000 48.922
70.8200 49.691
70.8400 50.199
70.8600 49.273
70.8800 50.180
70.9000 50.171
70.9200 50.154
70.9400 50.405
70.9600 49.594
70.9800 51.020
71.0000 50.005
71.0200 50.810
71.0400 50.322
71.0600 49.568
71.0800 50.269
71.1000 50.081
71.1200 49.834
71.1400 50.112
71.1600 50.234
71.1800 49.855
71.2000 51.317
71.2200 50.395
71.2400 50.802
71.2600 50.077
71.2800 51.549
71.3000 50.462
71.3200 50.110
71.3400 49.812
71.3600 50.250
71.3800 49.855
71.4000 50.787
71.4200 49.719
71.4400 50.486
71.4600 49.924
71.4800 50.727
71.5000 49.798
71.5200 52.099
71.5400 51.092
71.5600 49.829
71.5800 50.542
71.6000 51.559
71.6200 51.435
71.6400 50.837
71.6600 50.756
71.6800 50.939
71.7000 51.648
71.7200 51.114
71.7400 50.138
71.7600 51.195
71.7800 50.328
71.8000 50.895
71.8200 50.358
71.8400 50.359
71.8600 50.686
71.8800 50.672
71.9000 50.790
71.9200 50.733
71.9400 50.308
71.9600 50.214
71.9800 50.542
72.0000 50.636
72.0200 50.051
72.0400 50.858
72.0600 51.292
72.0800 51.234
72.1000 50.491
72.1200 50.979
72.1400 50.116
72.1600 51.255
72.1800 50.995
72.2000 51.116
72.2200 50.959
72.2400 50.530
72.2600 50.512
72.2800 51.186
72.3000 51.373
72.3200 51.707
72.3400 50.928
72.3600 50.663
72.3800 51.676
72.4000 51.037
72.4200 51.000
72.4400 51.614
72.4600 50.989
72.4800 51.146
72.5000 51.622
72.5200 51.033
72.5400 49.735
72.5600 50.542
72.5800 51.364
72.6000 50.250
72.6200 50.277
72.6400 51.088
72.6600 51.623
72.6800 51.524
72.7000 50.973
72.7200 51.808
72.7400 51.155
72.7600 51.014
72.7800 52.813
72.8000 51.975
72.8200 51.088
72.8400 52.351
72.8600 52.734
72.8800 51.490
72.9000 51.586
72.9200 51.552
72.9400 52.440
72.9600 51.603
72.9800 52.363
73.0000 51.497
73.0200 51.361
73.0400 51.847
73.0600 51.648
73.0800 51.502
73.1000 51.879
73.1200 51.544
73.1400 52.843
73.1600 51.032
73.1800 52.624
73.2000 51.406
73.2200 52.983
73.2400 52.622
73.2600 52.248
73.2800 51.923
73.3000 52.193
73.3200 51.600
73.3400 51.452
73.3600 53.012
73.3800 52.129
73.4000 52.071
73.4200 52.065
73.4400 51.601
73.4600 52.980
73.4800 52.902
73.5000 51.419
73.5200 52.027
73.5400 52.726
73.5600 53.047
73.5800 52.030
73.6000 52.335
73.6200 51.303
73.6400 51.421
73.6600 52.695
73.6800 52.214
73.7000 51.789
73.7200 52.726
73.7400 52.116
73.7600 52.162
73.7800 53.107
73.8000 51.945
73.8200 51.837
73.8400 52.103
73.8600 51.574
73.8800 51.529
73.9000 53.211
73.9200 51.485
73.9400 51.958
73.9600 52.090
73.9800 51.958
74.0000 52.677
74.0200 52.331
74.0400 51.667
74.0600 52.563
74.0800 52.562
74.1000 52.972
74.1200 51.570
74.1400 52.373
74.1600 52.918
74.1800 53.724
74.2000 53.362
74.2200 52.624
74.2400 51.859
74.2600 51.821
74.2800 52.496
74.3000 53.050
74.3200 52.154
74.3400 52.227
74.3600 53.007
74.3800 53.010
74.4000 52.647
74.4200 53.040
74.4400 53.159
74.4600 52.727
74.4800 52.564
74.5000 51.540
74.5200 53.162
74.5400 52.464
74.5600 52.510
74.5800 51.857
74.6000 53.590
74.6200 52.953
74.6400 53.250
74.6600 53.461
74.6800 53.756
74.7000 52.067
74.7200 52.340
74.7400 52.775
74.7600 52.844
74.7800 52.686
74.8000 52.997
74.8200 54.143
74.8400 54.818
74.8600 52.917
74.8800 53.450
74.9000 53.161
74.9200 52.588
74.9400 53.292
74.9600 53.798
74.9800 53.408
75.0000 53.772
75.0200 52.929
75.0400 53.079
75.0600 53.209
75.0800 54.161
75.1000 53.863
75.1200 53.780
75.1400 53.869
75.1600 53.337
75.1800 52.966
75.2000 54.026
75.2200 53.440
75.2400 54.017
75.2600 54.480
75.2800 54.231
75.3000 53.607
75.3200 53.180
75.3400 52.694
75.3600 52.685
75.3800 52.640
75.4000 54.073
75.4200 54.281
75.4400 54.161
75.4600 54.593
75.4800 54.479
75.5000 55.033
75.5200 53.880
75.5400 53.864
75.5600 53.699
75.5800 53.877
75.6000 53.676
75.6200 53.948
75.6400 53.492
75.6600 55.226
75.6800 55.473
75.7000 55.190
75.7200 54.691
75.7400 53.940
75.7600 53.883
75.7800 53.841
75.8000 54.020
75.8200 55.185
75.8400 54.186
75.8600 54.426
75.8800 54.547
75.9000 54.990
75.9200 54.704
75.9400 53.927
75.9600 54.911
75.9800 54.322
76.0000 54.150
76.0200 53.392
76.0400 52.908
76.0600 53.798
76.0800 54.252
76.1000 54.082
76.1200 54.613
76.1400 55.935
76.1600 55.160
76.1800 54.805
76.2000 54.125
76.2200 53.650
76.2400 53.974
76.2600 54.648
76.2800 54.101
76.3000 54.913
76.3200 54.873
76.3400 54.995
76.3600 55.526
76.3800 54.884
76.4000 54.900
76.4200 55.096
76.4400 55.126
76.4600 54.095
76.4800 54.440
76.5000 54.095
76.5200 55.207
76.5400 53.772
76.5600 54.771
76.5800 54.624
76.6000 54.321
76.6200 54.970
76.6400 54.407
76.6600 54.900
76.6800 55.185
76.7000 55.544
76.7200 57.092
76.7400 56.174
76.7600 54.840
76.7800 54.892
76.8000 55.081
76.8200 56.053
76.8400 55.477
76.8600 55.282
76.8800 56.229
76.9000 55.846
76.9200 55.697
76.9400 53.858
76.9600 55.504
76.9800 55.558
77.0000 55.220
77.0200 54.786
77.0400 55.173
77.0600 55.713
77.0800 54.758
77.1000 54.291
77.1200 54.994
77.1400 54.555
77.1600 55.489
77.1800 54.816
77.2000 55.254
77.2200 55.172
77.2400 55.582
77.2600 55.305
77.2800 55.867
77.3000 56.121
77.3200 55.643
77.3400 55.861
77.3600 55.120
77.3800 56.054
77.4000 56.226
77.4200 55.903
77.4400 55.544
77.4600 55.319
77.4800 56.040
77.5000 55.119
77.5200 55.582
77.5400 57.272
77.5600 55.401
77.5800 55.929
77.6000 55.797
77.6200 55.921
77.6400 55.328
77.6600 55.404
77.6800 55.177
77.7000 55.512
77.7200 55.886
77.7400 56.609
77.7600 56.159
77.7800 56.006
77.8000 55.534
77.8200 55.367
77.8400 56.321
77.8600 56.145
77.8800 54.695
77.9000 56.089
77.9200 56.558
77.9400 56.200
77.9600 56.370
77.9800 56.799
78.0000 55.991
78.0200 56.349
78.0400 56.529
78.0600 56.372
78.0800 55.601
78.1000 56.049
78.1200 56.795
78.1400 56.556
78.1600 56.247
78.1800 56.524
78.2000 56.009
78.2200 56.497
78.2400 56.725
78.2600 56.244
78.2800 56.095
78.3000 56.578
78.3200 56.241
78.3400 57.958
78.3600 56.647
78.3800 57.650
78.4000 56.912
78.4200 56.828
78.4400 56.185
78.4600 56.716
78.4800 55.980
78.5000 57.256
78.5200 56.628
78.5400 56.763
78.5600 57.412
78.5800 57.440
78.6000 57.301
78.6200 56.349
78.6400 56.178
78.6600 57.012
78.6800 56.838
78.7000 55.047
78.7200 56.866
78.7400 57.348
78.7600 58.628
78.7800 58.040
78.8000 57.668
78.8200 56.459
78.8400 56.308
78.8600 57.414
78.8800 57.225
78.9000 57.011
78.9200 57.294
78.9400 56.680
78.9600 56.667
78.9800 57.440
79.0000 56.800
79.0200 57.560
79.0400 58.276
79.0600 57.085
79.0800 57.890
79.1000 57.947
79.1200 58.562
79.1400 58.555
79.1600 56.423
79.1800 57.188
79.2000 57.380
79.2200 57.790
79.2400 56.871
79.2600 58.178
79.2800 57.512
79.3000 56.412
79.3200 57.020
79.3400 57.329
79.3600 57.062
79.3800 57.010
79.4000 57.175
79.4200 57.020
79.4400 57.590
79.4600 56.648
79.4800 59.164
79.5000 57.582
79.5200 57.224
79.5400 56.985
79.5600 57.441
79.5800 58.059
79.6000 58.575
79.6200 57.301
79.6400 57.555
79.6600 58.026
79.6800 57.494
79.7000 57.369
79.7200 57.256
79.7400 57.985
79.7600 56.702
79.7800 57.156
79.8000 56.999
79.8200 57.108
79.8400 57.854
79.8600 58.042
79.8800 57.040
79.9000 57.937
79.9200 58.065
79.9400 58.058
79.9600 57.264
79.9800 57.884
80.0000 58.301
